*TYPE		=  Raw
*CLASS		=  ASCII CLASS
*SAMPLE		=   
*COMMENT	=   
*FNAME		=  SiNx_2-Theta_Omega.asc
*DATE		=  05-Nov-25 16:28

*GROUP_COUNT	=  1
*GONIO		=  SmartLab(In-plane), 0.000000
*ATTACHMENT	=  Z-Phi Stage
*ASC		=  0, 0, 0.000000, 0.000000
*I_MONOCHRO	=  Soller_slit_5.0deg, 0.000000
*FILTER		=  None
*C_MONOCHRO	=  None, 0.000000
*SLIT_NAME	=  0, Incident slit
*SLIT_NAME	=  1, Receiving slit # 1
*SLIT_NAME	=  2, Receiving slit # 2
*COUNTER	=  SC-70, 0
*POS_FORMAT	=  0
*SCAN_AXIS	=  2Theta/Omega
*MEAS_MODE	=  Continuous Scanning
*TARGET		=  29
*XRAY_CHAR	=  K-ALPHA
*WAVE_LENGTH1	=  1.54059
*WAVE_LENGTH2	=  1.54441
*THICKNESS	=  0, 0.000000
*MU		=  0, 0.000000
*SCAN_MODE	=  2Theta/Omega
*SPEED_DIM	=  sec./step
*XUNIT		=  deg.
*YUNIT		=  counts
*SCALE_MODE	=  1
*REP_COUNT	=  0
*SE_COUNT	=  0
*STD_MATERIAL	=  Unknown, Unknown, 0.000000, 0.000000, 0.000000, 0.000000, 0.000000, 0.000000
*LATT_CONS	=  0, Unknown, Unknown, 0.000000, 0.000000, 0.000000, 0.000000, 0.000000, 0.000000
*SEC_COUNT	=  1
*TSPEC_SIZE	=  0
*EXTRA_SIZE	=  0
*MEMO		=   

*BEGIN
*GROUP		=  0
*START		=  10
*STOP		=  80
*STEP		=  0.01
*OFFSET		=  0.000000
*SPEED		=  0.12
*SLIT_SPEC	=  0, 1.000mm, 1, 0.000000
*SLIT_SPEC	=  1, 1.000mm, 1, 0.000000
*SLIT_SPEC	=  2, 1.000mm, 1, 0.000000
*KV		=  40
*MA		=  100
*LOW		=  0.000000
*HIGH		=  0.000000
*CTEMPER	=  0, 0.000000
*CTEMPER	=  1, 0.000000
*CTEMPER	=  2, 0.000000
*PAREX		=  0, 0.000000
*PAREX		=  1, 0.000000
*PAREX		=  2, 0.000000
*PAREX		=  3, 0.000000
*PAREX		=  4, 0.000000
*PAREX		=  5, 0.000000
*PAREX		=  6, 0.000000
*PAREX		=  7, 0.000000
*PAREX		=  8, 0.000000
*PAREX		=  9, 0.000000
*PAREX		=  10, 0.000000
*PAREX		=  11, 0.000000
*PAREX		=  12, 0.000000
*PAREX		=  13, 0.000000
*PAREX		=  14, 0.000000
*PAREX		=  15, 0.000000
*FULL_SCALE	=  34120
*INDEX		=  0, 0, 0
*COUNT		=  7001
40, 33, 35, 39
30, 43, 44, 33
46, 46, 44, 33
33, 39, 32, 48
29, 39, 32, 38
43, 37, 35, 48
48, 36, 34, 37
36, 33, 39, 32
40, 24, 37, 42
40, 37, 39, 36
35, 38, 51, 40
39, 39, 32, 38
44, 38, 34, 36
29, 40, 31, 29
40, 50, 36, 44
39, 46, 25, 22
37, 35, 47, 43
40, 35, 40, 46
45, 35, 39, 45
39, 38, 35, 28
51, 37, 41, 31
35, 35, 43, 33
35, 45, 35, 31
32, 45, 38, 34
48, 28, 35, 42
36, 35, 33, 35
36, 26, 40, 30
36, 44, 31, 29
34, 31, 42, 30
46, 47, 35, 38
33, 26, 42, 43
35, 28, 35, 39
41, 33, 38, 43
33, 39, 45, 30
38, 32, 45, 27
34, 33, 35, 44
35, 38, 25, 36
35, 34, 28, 31
17, 35, 34, 43
34, 30, 27, 29
35, 29, 33, 35
35, 28, 41, 38
22, 38, 43, 33
26, 34, 35, 38
30, 25, 32, 27
37, 31, 35, 30
33, 38, 33, 29
38, 41, 30, 44
35, 39, 28, 25
35, 36, 34, 25
29, 32, 27, 38
35, 33, 32, 26
27, 34, 24, 22
32, 33, 42, 34
27, 31, 24, 33
31, 36, 37, 30
33, 33, 39, 32
36, 34, 22, 23
41, 32, 38, 34
26, 24, 38, 32
23, 31, 44, 23
30, 24, 26, 36
37, 29, 37, 29
42, 34, 30, 31
40, 27, 34, 39
25, 35, 45, 34
34, 20, 31, 25
26, 29, 30, 39
23, 22, 22, 29
23, 25, 32, 37
19, 29, 28, 35
23, 29, 22, 30
37, 35, 21, 31
32, 28, 28, 32
26, 21, 18, 39
33, 26, 23, 23
30, 30, 29, 24
42, 31, 30, 23
24, 31, 34, 22
27, 27, 33, 34
26, 27, 18, 24
38, 25, 26, 28
36, 27, 34, 33
26, 28, 37, 20
29, 25, 29, 29
21, 29, 32, 32
26, 32, 27, 25
27, 35, 28, 30
30, 28, 24, 39
25, 26, 22, 36
27, 22, 22, 28
31, 40, 21, 29
19, 29, 27, 31
32, 32, 33, 24
38, 29, 16, 28
34, 23, 27, 28
26, 38, 32, 32
25, 29, 24, 30
25, 25, 25, 30
30, 29, 24, 31
32, 32, 30, 26
29, 15, 27, 29
38, 21, 32, 19
21, 29, 35, 34
26, 29, 31, 24
33, 29, 24, 25
20, 23, 32, 34
30, 29, 37, 21
31, 28, 20, 24
27, 20, 33, 28
30, 29, 24, 29
24, 30, 24, 30
24, 18, 20, 17
25, 21, 25, 36
19, 25, 29, 19
27, 26, 33, 21
27, 28, 27, 31
24, 26, 35, 16
27, 24, 27, 33
23, 26, 31, 31
18, 22, 18, 25
26, 27, 33, 27
32, 21, 24, 16
23, 33, 31, 19
26, 21, 20, 19
20, 23, 28, 31
29, 38, 22, 26
24, 29, 30, 18
22, 21, 30, 24
25, 22, 22, 17
29, 21, 17, 27
22, 31, 30, 20
25, 24, 20, 32
22, 26, 19, 26
22, 19, 30, 20
19, 30, 30, 16
19, 30, 27, 25
30, 19, 28, 32
22, 32, 24, 22
16, 20, 23, 22
14, 26, 29, 23
23, 20, 22, 29
23, 14, 26, 22
27, 13, 28, 19
28, 31, 24, 28
21, 20, 19, 26
22, 18, 25, 23
17, 26, 20, 20
20, 19, 22, 23
26, 19, 20, 23
22, 11, 31, 21
16, 25, 22, 22
25, 24, 26, 16
22, 15, 30, 19
20, 24, 24, 19
21, 26, 25, 18
18, 16, 23, 17
33, 22, 18, 16
12, 27, 24, 22
17, 23, 26, 15
20, 11, 19, 23
19, 15, 17, 15
21, 21, 18, 28
13, 18, 26, 19
14, 20, 26, 19
23, 20, 12, 17
26, 26, 18, 24
29, 27, 8, 25
17, 22, 23, 18
14, 22, 28, 27
18, 14, 23, 17
23, 20, 18, 21
16, 24, 20, 21
20, 25, 16, 20
20, 24, 21, 22
21, 20, 16, 22
16, 20, 21, 19
14, 26, 14, 21
14, 27, 23, 20
24, 18, 25, 21
10, 18, 19, 28
18, 18, 30, 25
22, 20, 23, 16
24, 14, 15, 26
24, 20, 26, 23
20, 15, 13, 15
12, 15, 28, 14
21, 15, 21, 20
24, 21, 26, 24
13, 20, 16, 12
20, 20, 20, 28
22, 22, 28, 28
24, 16, 17, 25
26, 25, 12, 19
18, 11, 24, 21
20, 14, 24, 24
17, 6, 10, 24
19, 22, 16, 20
20, 15, 20, 21
17, 17, 20, 24
21, 20, 17, 28
18, 36, 20, 27
22, 20, 21, 24
16, 23, 16, 21
16, 22, 25, 21
16, 21, 27, 14
17, 22, 22, 31
16, 18, 15, 18
26, 19, 23, 12
18, 22, 22, 23
25, 19, 18, 24
13, 22, 18, 18
20, 11, 23, 14
28, 15, 13, 18
14, 27, 13, 18
21, 35, 23, 15
17, 21, 11, 21
13, 21, 18, 18
16, 16, 25, 22
18, 16, 23, 24
17, 19, 23, 14
18, 21, 16, 21
18, 20, 25, 17
13, 14, 17, 16
20, 20, 15, 21
19, 15, 21, 28
19, 17, 21, 18
19, 21, 23, 14
17, 22, 24, 15
17, 21, 14, 25
11, 17, 14, 24
19, 17, 12, 18
18, 11, 13, 15
18, 18, 20, 11
17, 15, 24, 16
19, 25, 22, 20
14, 21, 15, 12
22, 22, 18, 15
22, 20, 16, 15
19, 15, 19, 19
13, 17, 22, 13
13, 22, 24, 18
16, 24, 24, 16
13, 16, 21, 16
19, 11, 25, 19
17, 19, 24, 21
29, 15, 22, 17
19, 21, 16, 21
18, 13, 16, 15
12, 14, 14, 27
15, 20, 18, 19
20, 19, 20, 12
16, 15, 18, 20
13, 13, 18, 19
14, 24, 16, 18
18, 23, 12, 20
12, 20, 27, 10
16, 20, 23, 11
18, 15, 20, 24
21, 16, 15, 19
14, 12, 19, 21
20, 14, 12, 15
13, 23, 15, 13
17, 18, 16, 15
16, 14, 16, 25
20, 22, 17, 20
13, 16, 24, 17
11, 18, 24, 16
15, 19, 12, 14
15, 13, 21, 21
22, 14, 22, 25
18, 16, 16, 13
13, 18, 15, 13
15, 19, 18, 12
15, 14, 17, 13
23, 8, 23, 12
22, 17, 20, 18
10, 17, 15, 17
15, 19, 15, 21
13, 10, 20, 18
12, 15, 16, 15
14, 21, 10, 20
16, 14, 17, 26
8, 17, 12, 18
21, 16, 10, 13
20, 9, 16, 12
6, 16, 18, 18
18, 14, 19, 12
12, 18, 13, 26
17, 19, 27, 15
20, 21, 14, 20
15, 20, 13, 14
13, 14, 17, 17
18, 16, 18, 7
17, 20, 15, 13
14, 13, 21, 15
16, 19, 16, 15
18, 11, 9, 15
15, 9, 16, 14
15, 18, 11, 13
14, 15, 20, 13
12, 17, 13, 16
12, 20, 21, 16
11, 13, 15, 11
12, 14, 12, 14
17, 12, 20, 16
20, 17, 12, 11
17, 19, 14, 19
18, 15, 11, 13
12, 10, 14, 14
15, 20, 24, 17
20, 11, 19, 13
11, 21, 17, 13
15, 24, 17, 18
14, 11, 16, 22
12, 18, 9, 17
10, 20, 10, 18
13, 19, 13, 13
20, 15, 16, 13
19, 15, 10, 17
13, 6, 16, 6
15, 13, 21, 11
13, 14, 16, 17
15, 14, 15, 17
19, 22, 13, 14
20, 19, 15, 15
21, 21, 9, 16
15, 14, 14, 14
18, 12, 17, 12
16, 20, 14, 8
19, 21, 17, 19
18, 12, 16, 18
15, 14, 22, 17
13, 12, 17, 14
14, 12, 18, 15
17, 19, 15, 14
25, 19, 11, 9
13, 7, 11, 17
25, 19, 9, 13
13, 12, 15, 11
23, 15, 12, 8
15, 9, 13, 12
6, 8, 12, 10
20, 11, 21, 17
12, 15, 15, 18
18, 16, 9, 17
17, 19, 15, 10
21, 15, 13, 11
15, 17, 9, 7
15, 17, 10, 13
11, 15, 12, 13
17, 19, 17, 7
16, 18, 8, 23
20, 11, 20, 19
15, 12, 17, 8
6, 26, 23, 18
15, 9, 14, 12
21, 13, 20, 16
20, 19, 15, 11
14, 13, 10, 14
21, 8, 14, 15
11, 7, 13, 17
12, 16, 16, 12
12, 12, 15, 19
13, 17, 16, 15
8, 11, 13, 9
14, 6, 12, 12
14, 15, 14, 16
12, 17, 12, 7
13, 19, 10, 12
8, 11, 16, 13
17, 11, 17, 20
17, 19, 11, 22
18, 13, 9, 10
11, 12, 12, 12
16, 13, 11, 18
21, 18, 15, 14
11, 21, 14, 15
12, 11, 17, 9
13, 8, 14, 10
10, 12, 18, 11
13, 19, 9, 15
16, 20, 21, 13
23, 16, 17, 10
11, 8, 5, 15
17, 10, 12, 18
13, 12, 7, 11
18, 17, 17, 17
12, 17, 10, 12
16, 22, 10, 10
13, 20, 6, 10
14, 26, 13, 18
16, 8, 14, 15
14, 9, 14, 13
11, 11, 16, 15
12, 14, 20, 15
13, 23, 17, 12
9, 13, 15, 18
11, 10, 10, 17
11, 9, 20, 14
7, 11, 17, 17
14, 7, 8, 20
15, 15, 14, 15
11, 14, 15, 20
18, 12, 10, 18
14, 12, 14, 10
17, 18, 11, 10
8, 14, 13, 10
14, 13, 20, 15
17, 15, 13, 12
13, 11, 15, 20
14, 13, 15, 23
14, 14, 12, 7
10, 16, 13, 16
19, 14, 15, 12
9, 14, 18, 12
9, 7, 11, 12
10, 13, 16, 6
22, 12, 15, 7
19, 13, 16, 16
14, 13, 19, 19
15, 12, 14, 12
12, 14, 10, 16
14, 17, 17, 9
9, 7, 8, 13
13, 9, 21, 13
8, 13, 12, 11
12, 21, 20, 16
11, 11, 21, 18
16, 12, 14, 12
12, 8, 13, 9
15, 6, 11, 11
16, 14, 14, 11
15, 15, 10, 15
9, 11, 12, 7
14, 15, 13, 8
9, 20, 13, 13
17, 7, 29, 11
17, 13, 14, 15
15, 11, 14, 14
19, 17, 12, 14
12, 10, 15, 7
15, 10, 6, 10
10, 6, 16, 15
6, 16, 14, 16
13, 12, 14, 9
15, 11, 18, 12
19, 12, 19, 9
18, 7, 9, 10
14, 14, 13, 9
11, 19, 9, 15
10, 13, 9, 9
14, 11, 14, 17
13, 11, 11, 7
16, 18, 7, 13
12, 13, 12, 12
13, 10, 11, 13
13, 14, 11, 9
13, 13, 12, 10
11, 11, 13, 11
16, 14, 14, 18
12, 7, 8, 13
7, 6, 7, 13
10, 7, 16, 14
8, 11, 9, 9
11, 10, 11, 15
11, 13, 15, 13
10, 15, 16, 14
7, 8, 11, 9
6, 12, 5, 12
13, 9, 20, 14
17, 8, 19, 13
13, 24, 13, 12
6, 13, 15, 13
11, 17, 12, 14
18, 22, 9, 15
12, 15, 15, 14
12, 11, 5, 10
12, 11, 13, 16
14, 10, 20, 10
15, 9, 11, 14
14, 14, 17, 14
15, 14, 13, 20
12, 9, 12, 11
12, 21, 9, 12
11, 12, 12, 8
23, 14, 13, 12
15, 8, 11, 13
15, 15, 13, 15
14, 14, 13, 16
10, 7, 9, 13
11, 10, 7, 13
17, 7, 12, 8
21, 13, 17, 11
6, 18, 6, 14
5, 13, 5, 11
12, 10, 5, 12
13, 10, 11, 11
22, 15, 13, 15
16, 11, 13, 12
16, 12, 14, 6
15, 11, 13, 9
16, 17, 7, 14
17, 15, 11, 11
10, 12, 15, 9
12, 9, 11, 14
11, 11, 11, 17
10, 10, 9, 11
15, 8, 11, 6
12, 11, 14, 12
16, 12, 14, 11
15, 14, 14, 18
12, 18, 13, 14
20, 11, 17, 14
14, 7, 13, 18
7, 16, 18, 12
8, 12, 8, 8
18, 12, 7, 9
11, 10, 12, 16
13, 10, 16, 9
8, 13, 11, 15
15, 26, 12, 10
14, 7, 11, 10
16, 9, 7, 10
12, 16, 13, 9
8, 6, 11, 12
16, 12, 9, 11
4, 14, 12, 16
14, 14, 9, 10
9, 12, 11, 16
4, 16, 9, 14
14, 14, 16, 9
25, 17, 9, 13
17, 13, 12, 10
13, 12, 10, 8
20, 8, 14, 9
12, 10, 14, 12
7, 7, 17, 12
7, 11, 20, 8
16, 11, 11, 11
17, 10, 10, 11
20, 15, 7, 16
13, 11, 9, 15
9, 20, 22, 10
10, 11, 13, 16
13, 14, 12, 14
10, 11, 13, 16
7, 17, 11, 6
15, 11, 13, 10
16, 12, 12, 16
17, 14, 9, 8
14, 13, 5, 14
16, 14, 8, 16
21, 14, 10, 14
12, 17, 13, 13
15, 12, 17, 13
17, 11, 11, 12
17, 10, 16, 14
14, 15, 6, 24
11, 15, 13, 12
7, 21, 10, 10
6, 17, 16, 12
11, 15, 15, 15
20, 10, 10, 19
9, 10, 11, 10
15, 15, 13, 14
16, 10, 10, 14
13, 11, 6, 8
8, 11, 23, 18
12, 17, 11, 16
10, 5, 14, 16
9, 12, 15, 11
10, 10, 8, 15
15, 8, 14, 18
13, 16, 14, 16
10, 11, 15, 12
16, 14, 12, 18
3, 13, 14, 13
12, 15, 17, 11
8, 13, 12, 7
12, 14, 11, 11
16, 16, 15, 8
5, 14, 15, 19
13, 6, 10, 14
6, 6, 6, 10
7, 10, 13, 12
11, 7, 13, 6
13, 10, 16, 10
12, 15, 16, 10
11, 10, 12, 13
10, 10, 14, 16
5, 15, 17, 10
7, 6, 9, 15
12, 7, 17, 13
14, 6, 9, 14
19, 13, 13, 12
10, 11, 13, 12
11, 16, 11, 16
19, 14, 11, 11
16, 14, 11, 16
15, 14, 4, 12
12, 20, 11, 12
14, 19, 11, 8
8, 15, 11, 8
7, 10, 15, 17
13, 11, 7, 9
14, 7, 13, 11
13, 8, 6, 12
8, 11, 18, 14
10, 17, 13, 17
11, 12, 18, 11
9, 7, 16, 10
12, 14, 12, 11
13, 15, 11, 12
11, 16, 9, 12
13, 9, 11, 18
7, 8, 7, 16
19, 9, 8, 17
13, 5, 15, 9
17, 11, 8, 7
18, 11, 11, 13
11, 14, 6, 8
10, 6, 14, 10
19, 12, 14, 10
9, 15, 16, 17
14, 9, 16, 16
10, 8, 11, 13
14, 11, 15, 14
15, 9, 10, 14
13, 19, 10, 11
10, 11, 10, 12
12, 12, 9, 10
14, 16, 15, 11
15, 21, 11, 10
18, 6, 8, 13
9, 9, 11, 11
11, 12, 9, 15
12, 14, 6, 7
17, 14, 12, 21
26, 7, 13, 16
8, 16, 14, 13
19, 9, 12, 12
15, 20, 11, 11
17, 9, 16, 12
12, 14, 14, 11
13, 8, 9, 11
18, 12, 21, 16
6, 12, 19, 12
15, 14, 13, 7
17, 13, 12, 12
8, 19, 9, 10
16, 13, 10, 11
9, 18, 6, 8
10, 11, 15, 17
12, 19, 7, 10
13, 11, 13, 11
15, 9, 9, 14
13, 9, 15, 10
19, 9, 9, 12
21, 13, 10, 10
6, 11, 15, 15
10, 15, 15, 9
13, 10, 12, 6
15, 10, 14, 11
6, 11, 6, 9
11, 12, 15, 6
14, 15, 16, 8
7, 9, 8, 12
9, 14, 7, 18
15, 11, 12, 12
5, 12, 15, 9
5, 5, 10, 12
13, 21, 12, 16
16, 7, 14, 21
11, 16, 19, 13
12, 7, 12, 15
15, 18, 9, 15
10, 17, 9, 11
14, 17, 21, 13
14, 13, 13, 11
16, 8, 10, 18
10, 12, 12, 15
12, 9, 14, 19
15, 14, 18, 14
13, 15, 9, 13
13, 17, 13, 13
13, 6, 15, 13
15, 11, 20, 12
12, 12, 11, 11
7, 18, 10, 15
19, 10, 13, 10
11, 11, 15, 14
19, 17, 11, 19
7, 17, 12, 14
7, 18, 8, 12
11, 11, 11, 12
15, 14, 16, 11
17, 16, 11, 10
16, 8, 11, 12
14, 22, 7, 13
14, 15, 12, 17
18, 13, 19, 14
13, 16, 18, 11
19, 22, 17, 15
21, 7, 8, 18
19, 11, 19, 21
13, 14, 14, 17
14, 8, 13, 16
9, 18, 16, 10
21, 13, 11, 12
15, 11, 11, 9
27, 14, 13, 9
9, 9, 15, 17
18, 17, 15, 15
23, 17, 14, 12
16, 18, 16, 13
14, 6, 22, 15
15, 13, 15, 15
14, 15, 14, 10
8, 16, 16, 11
14, 16, 14, 16
9, 19, 10, 16
12, 16, 17, 13
19, 21, 21, 17
16, 16, 12, 15
16, 15, 19, 10
15, 15, 15, 16
17, 18, 17, 19
26, 14, 15, 15
17, 24, 11, 17
8, 16, 16, 24
9, 17, 16, 9
12, 13, 19, 12
10, 14, 16, 16
18, 15, 9, 16
9, 19, 11, 20
11, 19, 13, 12
16, 18, 20, 13
13, 16, 19, 15
11, 8, 13, 13
7, 17, 22, 21
17, 15, 14, 17
17, 10, 17, 16
18, 19, 24, 22
15, 15, 16, 13
11, 14, 25, 19
19, 11, 22, 15
17, 12, 10, 17
22, 12, 9, 13
17, 23, 16, 21
16, 13, 13, 21
18, 18, 17, 11
15, 19, 29, 15
23, 14, 11, 20
16, 17, 23, 17
13, 19, 19, 23
23, 16, 19, 16
15, 19, 18, 17
19, 20, 31, 16
15, 26, 21, 13
14, 20, 14, 13
19, 15, 16, 18
17, 15, 31, 19
10, 22, 10, 10
13, 13, 17, 22
14, 15, 18, 22
20, 15, 9, 18
15, 18, 12, 24
19, 19, 24, 17
19, 14, 16, 14
10, 15, 16, 20
13, 22, 12, 20
26, 20, 25, 16
16, 18, 20, 15
17, 23, 14, 17
23, 10, 23, 19
14, 28, 17, 19
11, 17, 13, 20
20, 22, 20, 14
16, 23, 20, 17
18, 12, 18, 24
13, 24, 16, 14
19, 17, 21, 21
23, 23, 21, 17
23, 16, 28, 17
22, 21, 20, 21
14, 14, 29, 33
18, 24, 24, 18
19, 21, 14, 20
14, 25, 27, 20
30, 14, 16, 19
16, 25, 24, 21
24, 13, 24, 26
18, 17, 19, 24
24, 25, 12, 21
23, 23, 19, 22
17, 25, 23, 17
29, 23, 24, 22
21, 27, 18, 28
32, 33, 25, 22
21, 22, 23, 21
22, 20, 12, 31
25, 23, 26, 21
23, 28, 28, 32
29, 18, 29, 28
23, 28, 34, 26
25, 30, 31, 40
20, 32, 32, 23
33, 19, 31, 40
41, 41, 30, 45
34, 37, 35, 29
31, 36, 35, 36
49, 33, 36, 38
55, 40, 66, 53
44, 47, 40, 63
37, 49, 46, 48
59, 38, 31, 32
48, 35, 37, 29
37, 37, 24, 48
27, 39, 25, 33
38, 25, 30, 30
29, 25, 25, 33
28, 31, 29, 28
30, 37, 35, 30
36, 30, 22, 42
33, 30, 20, 21
30, 45, 27, 34
25, 40, 29, 26
29, 33, 34, 30
25, 25, 33, 32
45, 33, 35, 34
24, 33, 28, 20
34, 30, 32, 43
35, 31, 38, 26
44, 27, 20, 31
35, 31, 40, 30
43, 34, 32, 36
51, 33, 42, 31
31, 42, 30, 23
28, 40, 30, 30
29, 35, 33, 38
31, 42, 34, 29
32, 38, 31, 38
46, 50, 35, 30
37, 50, 45, 39
41, 48, 36, 33
40, 39, 35, 32
29, 44, 39, 40
40, 41, 38, 44
49, 42, 24, 50
39, 50, 49, 46
43, 40, 33, 61
41, 41, 44, 46
47, 37, 35, 47
43, 61, 53, 58
47, 51, 45, 53
43, 46, 47, 38
53, 43, 37, 52
48, 56, 56, 58
52, 52, 52, 42
42, 55, 52, 58
52, 47, 44, 47
54, 45, 58, 56
55, 65, 62, 42
59, 61, 56, 53
56, 57, 50, 57
44, 57, 47, 61
57, 59, 58, 43
65, 75, 58, 49
58, 68, 65, 60
68, 62, 70, 60
78, 59, 79, 94
57, 77, 92, 86
66, 86, 76, 88
79, 79, 77, 87
84, 97, 75, 97
87, 71, 100, 108
98, 93, 95, 98
105, 84, 88, 101
95, 79, 94, 122
96, 106, 111, 116
117, 112, 113, 114
128, 109, 107, 125
124, 106, 119, 126
105, 109, 129, 105
117, 108, 108, 128
103, 115, 109, 120
110, 126, 131, 126
127, 109, 104, 110
120, 139, 139, 123
125, 128, 115, 132
122, 109, 129, 134
126, 118, 118, 131
132, 141, 106, 131
123, 131, 163, 163
147, 128, 146, 146
161, 151, 137, 143
161, 149, 158, 193
147, 158, 158, 178
166, 158, 166, 173
153, 159, 165, 172
173, 181, 187, 172
184, 201, 199, 200
177, 195, 190, 177
214, 199, 205, 204
233, 233, 238, 202
247, 243, 246, 230
235, 268, 245, 263
251, 240, 248, 280
240, 280, 285, 272
270, 280, 270, 309
285, 313, 352, 291
309, 304, 308, 333
348, 344, 370, 345
381, 387, 358, 370
376, 405, 430, 416
367, 396, 432, 445
483, 459, 498, 504
503, 523, 536, 480
573, 575, 533, 598
579, 562, 620, 624
636, 657, 671, 713
760, 782, 825, 865
819, 870, 944, 946
953, 982, 1058, 1050
1133, 1161, 1202, 1199
1291, 1388, 1350, 1424
1557, 1652, 1687, 1725
1859, 1966, 2024, 2118
2222, 2272, 2322, 2436
2511, 2591, 2748, 2781
2943, 3031, 3168, 3204
3271, 3279, 3285, 3359
3267, 3316, 3301, 3314
3412, 3308, 3317, 3223
3163, 3093, 2990, 3016
2858, 2743, 2696, 2663
2539, 2365, 2390, 2185
2161, 2077, 2055, 1976
1897, 1745, 1752, 1636
1561, 1512, 1471, 1391
1347, 1232, 1215, 1177
1151, 1137, 1032, 960
1012, 988, 902, 888
859, 860, 797, 770
740, 757, 745, 686
675, 664, 669, 610
613, 641, 584, 539
543, 563, 559, 498
508, 490, 465, 498
496, 456, 445, 425
420, 409, 406, 412
379, 405, 386, 347
363, 389, 366, 343
320, 326, 301, 348
290, 286, 330, 314
301, 323, 287, 291
261, 289, 256, 232
268, 249, 243, 244
258, 231, 208, 258
208, 246, 227, 227
236, 211, 220, 207
212, 240, 184, 224
213, 174, 178, 184
213, 183, 184, 188
189, 184, 191, 172
148, 149, 167, 176
170, 158, 163, 160
175, 160, 141, 142
159, 131, 124, 119
158, 163, 154, 128
139, 141, 134, 137
133, 147, 133, 126
112, 122, 102, 114
121, 101, 107, 112
114, 100, 131, 131
126, 113, 102, 130
100, 114, 114, 90
90, 102, 107, 93
102, 132, 99, 112
109, 101, 104, 113
99, 101, 103, 78
113, 77, 89, 82
99, 94, 106, 93
100, 94, 93, 89
97, 83, 85, 81
83, 97, 85, 98
87, 72, 70, 73
75, 84, 75, 79
75, 73, 84, 91
70, 83, 79, 79
58, 67, 71, 65
73, 69, 67, 71
78, 81, 80, 65
58, 72, 80, 78
57, 69, 77, 67
64, 71, 72, 53
74, 57, 58, 66
64, 75, 75, 64
78, 68, 70, 65
62, 59, 78, 68
62, 50, 71, 62
68, 59, 70, 72
62, 70, 71, 62
66, 73, 56, 61
64, 61, 61, 50
64, 82, 69, 64
61, 66, 59, 72
62, 62, 65, 62
57, 56, 52, 44
55, 60, 75, 58
49, 61, 46, 52
66, 48, 53, 65
60, 64, 66, 59
54, 45, 53, 60
68, 63, 63, 58
60, 54, 76, 48
57, 63, 58, 57
55, 45, 60, 47
52, 42, 57, 61
62, 54, 59, 55
61, 65, 56, 57
57, 59, 62, 56
56, 61, 48, 54
54, 48, 64, 50
70, 53, 46, 40
53, 53, 58, 59
54, 72, 57, 61
65, 66, 56, 69
62, 61, 65, 66
70, 60, 74, 75
58, 77, 70, 53
64, 64, 54, 62
71, 60, 69, 58
61, 65, 44, 49
50, 44, 59, 35
57, 55, 52, 45
45, 57, 46, 56
44, 51, 54, 48
44, 72, 50, 48
45, 45, 60, 56
47, 43, 48, 38
44, 50, 40, 46
51, 54, 39, 39
53, 61, 51, 45
58, 54, 52, 39
68, 58, 66, 46
56, 54, 51, 64
53, 50, 62, 49
47, 56, 59, 50
47, 51, 55, 38
45, 57, 40, 42
50, 41, 34, 44
49, 51, 41, 41
48, 46, 44, 47
38, 50, 37, 38
42, 46, 39, 40
46, 40, 42, 40
41, 30, 28, 39
44, 28, 40, 43
36, 38, 31, 48
34, 49, 34, 27
34, 39, 40, 36
36, 26, 38, 46
34, 45, 30, 32
38, 51, 43, 43
38, 32, 32, 37
37, 33, 38, 30
34, 37, 32, 25
40, 32, 32, 41
40, 42, 25, 37
37, 32, 38, 34
29, 36, 23, 30
37, 27, 31, 29
27, 26, 25, 32
36, 37, 26, 42
25, 25, 27, 37
31, 31, 29, 33
26, 32, 26, 26
34, 33, 39, 30
35, 30, 26, 24
37, 27, 29, 31
25, 34, 29, 29
22, 26, 26, 26
36, 29, 27, 30
27, 21, 30, 24
25, 26, 28, 31
32, 25, 29, 29
22, 23, 27, 24
18, 28, 22, 19
31, 26, 30, 28
16, 29, 20, 26
15, 24, 27, 22
18, 27, 25, 20
26, 21, 21, 20
26, 26, 18, 23
31, 25, 18, 18
39, 19, 28, 16
22, 22, 23, 30
23, 26, 25, 26
22, 26, 27, 25
25, 28, 19, 25
21, 23, 19, 28
31, 35, 22, 24
16, 29, 21, 19
19, 17, 21, 22
23, 18, 21, 24
19, 12, 22, 15
23, 11, 14, 17
20, 23, 18, 15
20, 19, 20, 27
21, 18, 13, 18
22, 19, 28, 16
15, 20, 23, 21
10, 23, 26, 29
24, 10, 28, 16
22, 25, 14, 12
12, 25, 26, 24
20, 20, 18, 18
18, 8, 13, 15
15, 18, 21, 21
19, 17, 17, 15
20, 16, 22, 26
14, 23, 23, 20
13, 18, 18, 21
16, 20, 15, 17
16, 18, 15, 14
26, 10, 23, 18
19, 14, 23, 19
20, 16, 23, 19
12, 19, 14, 18
26, 14, 12, 20
15, 20, 20, 16
15, 12, 19, 23
15, 15, 19, 21
26, 18, 22, 17
17, 20, 23, 24
19, 19, 17, 17
15, 16, 11, 17
11, 14, 14, 13
18, 10, 18, 10
16, 19, 17, 14
13, 21, 16, 9
19, 18, 16, 22
19, 15, 14, 26
15, 18, 13, 13
13, 21, 14, 19
14, 6, 18, 11
15, 10, 22, 23
19, 16, 11, 17
15, 16, 19, 9
11, 14, 13, 19
15, 15, 16, 13
13, 13, 16, 14
15, 21, 12, 19
18, 15, 8, 18
13, 8, 8, 10
19, 16, 22, 12
18, 14, 18, 12
21, 18, 17, 19
20, 11, 16, 21
16, 12, 18, 19
18, 12, 14, 19
15, 12, 20, 19
17, 15, 17, 14
16, 10, 17, 16
16, 17, 18, 13
15, 18, 8, 20
14, 13, 10, 11
11, 20, 20, 10
8, 16, 13, 17
14, 15, 23, 17
9, 13, 12, 14
11, 19, 14, 17
13, 15, 14, 14
15, 15, 11, 17
8, 18, 12, 10
23, 15, 19, 10
23, 9, 15, 15
16, 16, 12, 13
15, 9, 8, 11
24, 13, 13, 16
22, 19, 12, 10
13, 10, 17, 13
10, 10, 22, 12
6, 15, 12, 11
14, 17, 16, 15
14, 9, 16, 15
14, 12, 12, 21
15, 6, 18, 11
8, 15, 13, 16
22, 14, 14, 23
15, 16, 20, 10
16, 9, 13, 16
15, 19, 11, 12
14, 9, 9, 19
14, 14, 18, 14
12, 14, 12, 14
16, 13, 16, 15
11, 15, 13, 16
14, 17, 20, 12
15, 17, 10, 25
19, 10, 13, 14
15, 8, 16, 15
15, 9, 16, 9
8, 13, 13, 13
15, 14, 19, 11
11, 17, 15, 12
13, 9, 9, 8
11, 15, 9, 18
22, 10, 5, 8
15, 18, 21, 11
14, 10, 7, 11
15, 10, 8, 10
12, 15, 13, 8
6, 13, 12, 13
12, 10, 8, 11
10, 11, 9, 8
14, 13, 15, 9
12, 17, 9, 14
15, 12, 7, 10
20, 12, 12, 12
14, 13, 19, 15
11, 14, 8, 13
12, 17, 12, 9
11, 11, 11, 12
16, 11, 10, 15
22, 11, 16, 11
14, 8, 9, 18
14, 8, 10, 6
13, 8, 15, 14
12, 12, 14, 11
7, 9, 13, 15
14, 9, 9, 10
17, 15, 11, 11
12, 12, 11, 9
6, 13, 15, 16
14, 15, 11, 22
11, 16, 10, 9
6, 10, 16, 13
10, 15, 10, 13
13, 16, 10, 12
12, 15, 15, 6
10, 12, 8, 14
15, 16, 14, 12
12, 12, 11, 23
11, 12, 13, 14
15, 12, 10, 12
13, 6, 10, 9
18, 12, 10, 8
10, 12, 12, 12
6, 18, 11, 16
16, 11, 14, 10
18, 9, 13, 7
11, 11, 19, 4
15, 7, 6, 6
16, 12, 13, 11
7, 11, 11, 13
9, 14, 12, 15
13, 9, 12, 11
9, 13, 13, 10
7, 7, 12, 10
12, 9, 10, 6
10, 10, 8, 8
12, 13, 11, 6
19, 10, 17, 11
16, 22, 16, 7
17, 4, 9, 17
21, 6, 13, 11
18, 15, 18, 11
7, 5, 6, 11
14, 7, 6, 15
11, 11, 14, 20
11, 10, 7, 7
13, 12, 11, 9
9, 13, 11, 16
14, 14, 16, 14
10, 13, 9, 11
15, 12, 9, 11
9, 10, 13, 11
5, 10, 9, 12
11, 9, 7, 10
4, 18, 12, 15
7, 12, 12, 8
15, 9, 12, 6
9, 15, 12, 9
14, 11, 2, 8
12, 9, 16, 10
12, 11, 9, 10
20, 12, 7, 15
12, 13, 13, 10
9, 17, 6, 11
18, 13, 13, 12
8, 11, 8, 8
8, 8, 17, 13
8, 6, 8, 7
10, 13, 5, 15
8, 11, 8, 8
13, 8, 9, 11
13, 15, 8, 12
11, 14, 14, 12
10, 8, 15, 8
13, 10, 9, 9
17, 11, 15, 14
12, 10, 14, 4
10, 15, 5, 11
8, 15, 8, 16
6, 8, 11, 13
15, 9, 14, 11
11, 14, 3, 15
5, 10, 11, 10
10, 15, 11, 11
14, 10, 15, 8
11, 7, 15, 7
8, 10, 17, 12
12, 9, 8, 13
6, 13, 9, 7
14, 13, 12, 10
10, 15, 17, 15
9, 12, 6, 8
11, 7, 11, 7
17, 7, 14, 10
9, 15, 11, 6
9, 8, 12, 11
7, 11, 10, 14
11, 3, 11, 9
9, 9, 10, 10
12, 7, 11, 10
11, 11, 11, 14
13, 12, 6, 4
6, 11, 5, 8
8, 18, 10, 8
12, 8, 10, 11
14, 10, 10, 12
15, 11, 9, 9
10, 12, 7, 11
11, 13, 5, 14
7, 12, 12, 12
7, 12, 7, 7
9, 11, 15, 14
7, 10, 9, 10
7, 15, 8, 17
4, 7, 14, 9
10, 9, 9, 12
6, 6, 17, 13
12, 7, 10, 11
10, 12, 7, 9
5, 11, 10, 9
11, 9, 15, 14
8, 15, 11, 8
10, 13, 19, 6
11, 13, 12, 12
8, 13, 20, 6
7, 11, 10, 11
8, 12, 8, 3
10, 13, 13, 8
11, 6, 8, 21
9, 9, 13, 13
9, 13, 8, 7
6, 15, 7, 8
14, 10, 11, 12
7, 9, 11, 17
9, 7, 9, 6
5, 9, 10, 8
6, 12, 10, 9
15, 9, 11, 9
10, 8, 11, 12
15, 10, 11, 8
11, 12, 12, 8
6, 11, 14, 9
8, 13, 11, 12
8, 8, 13, 8
5, 11, 13, 10
11, 4, 11, 14
10, 10, 12, 9
11, 6, 9, 10
13, 16, 9, 14
9, 8, 13, 12
7, 9, 11, 5
9, 15, 8, 8
7, 14, 8, 12
6, 5, 6, 7
6, 7, 13, 11
8, 9, 11, 12
10, 12, 14, 8
16, 7, 7, 12
9, 13, 10, 10
11, 12, 11, 11
6, 7, 12, 6
8, 10, 16, 6
15, 12, 8, 16
13, 8, 11, 9
7, 5, 9, 9
9, 14, 14, 9
12, 14, 8, 5
15, 11, 8, 9
7, 7, 6, 6
9, 11, 11, 9
8, 9, 12, 7
8, 9, 10, 8
10, 16, 11, 12
10, 11, 12, 11
5, 11, 10, 8
7, 11, 10, 11
10, 12, 6, 6
12, 10, 8, 9
10, 7, 13, 11
15, 12, 11, 13
7, 14, 11, 16
9, 10, 10, 12
5, 6, 18, 9
6, 9, 8, 9
11, 19, 10, 8
14, 11, 16, 5
9, 20, 10, 11
7, 13, 14, 8
10, 11, 10, 18
10, 14, 5, 16
1, 15, 10, 10
8, 11, 9, 13
16, 17, 6, 9
13, 12, 15, 8
11, 14, 10, 8
12, 11, 8, 12
11, 7, 8, 8
14, 11, 12, 7
15, 2, 7, 10
9, 11, 9, 2
18, 10, 8, 9
9, 12, 10, 7
12, 9, 11, 8
8, 12, 11, 9
5, 8, 11, 5
5, 12, 6, 9
11, 7, 9, 12
5, 15, 13, 6
7, 6, 12, 18
9, 9, 6, 11
16, 9, 7, 14
8, 8, 15, 10
8, 14, 16, 9
15, 12, 9, 12
9, 11, 10, 7
10, 10, 7, 11
8, 8, 6, 9
15, 16, 6, 9
9, 14, 6, 10
12, 12, 11, 7
17, 3, 8, 10
10, 9, 12, 11
8, 9, 5, 6
15, 4, 12, 8
8, 12, 7, 8
3, 6, 11, 7
11, 6, 9, 13
6, 9, 12, 5
13, 11, 8, 10
13, 5, 7, 9
8, 6, 9, 6
8, 9, 17, 10
15, 12, 9, 7
9, 11, 7, 11
7, 4, 13, 9
11, 8, 11, 10
8, 10, 9, 11
7, 10, 6, 10
8, 9, 7, 5
13, 8, 4, 5
10, 8, 10, 9
7, 9, 12, 4
11, 7, 7, 10
8, 11, 16, 6
8, 12, 4, 11
8, 14, 6, 7
8, 4, 10, 3
11, 9, 8, 5
7, 8, 9, 7
4, 9, 13, 13
6, 9, 8, 9
13, 9, 11, 9
5, 6, 9, 8
6, 9, 9, 9
12, 7, 8, 9
9, 11, 11, 18
7, 14, 5, 14
12, 10, 14, 10
6, 4, 5, 7
6, 4, 11, 8
8, 7, 8, 12
7, 5, 10, 5
10, 10, 4, 8
9, 13, 6, 12
11, 10, 13, 16
16, 5, 2, 8
12, 7, 9, 9
6, 7, 9, 10
6, 12, 14, 11
14, 12, 9, 8
9, 4, 8, 12
11, 5, 6, 7
6, 9, 12, 14
7, 9, 12, 8
7, 11, 12, 4
6, 11, 15, 14
11, 7, 5, 8
8, 6, 11, 17
10, 7, 3, 8
6, 8, 10, 9
7, 10, 8, 6
8, 10, 10, 12
5, 9, 12, 7
9, 3, 6, 10
12, 13, 8, 9
10, 6, 7, 7
13, 6, 15, 4
8, 8, 5, 7
8, 9, 7, 12
9, 13, 8, 6
15, 15, 15, 4
8, 4, 13, 10
7, 4, 6, 12
6, 9, 11, 11
10, 8, 8, 9
13, 7, 7, 7
6, 9, 8, 6
12, 17, 7, 8
10, 11, 6, 9
11, 10, 4, 14
13, 11, 7, 11
15, 13, 6, 12
6, 7, 9, 4
10, 8, 9, 6
7, 14, 9, 8
7, 11, 6, 14
3, 12, 6, 9
7, 8, 7, 16
10, 9, 13, 11
15, 11, 12, 5
10, 5, 11, 10
6, 11, 16, 8
14, 11, 4, 9
15, 5, 6, 10
5, 6, 9, 8
11, 10, 13, 12
8, 10, 6, 8
14, 9, 19, 10
5, 7, 10, 15
7, 4, 9, 5
6, 9, 11, 7
4, 12, 12, 12
5, 13, 9, 13
12, 11, 10, 12
7, 7, 9, 5
12, 9, 5, 13
10, 12, 9, 8
10, 5, 8, 6
11, 9, 6, 8
15, 8, 7, 11
6, 12, 7, 7
10, 12, 9, 9
6, 12, 15, 11
10, 10, 14, 13
4, 11, 8, 12
11, 12, 6, 15
12, 6, 7, 12
11, 7, 7, 6
8, 11, 11, 12
10, 13, 8, 9
10, 11, 10, 10
9, 6, 7, 11
9, 9, 7, 4
0.000000, 15, 11, 11
12, 7, 7, 5
6, 9, 9, 8
12, 5, 11, 12
7, 11, 8, 10
9, 5, 7, 8
7, 8, 9, 7
9, 12, 10, 11
11, 9, 6, 13
12, 9, 7, 12
8, 7, 12, 5
9, 4, 7, 15
7, 12, 13, 6
10, 8, 6, 9
9, 12, 14, 8
8, 10, 13, 10
3, 10, 6, 9
12, 4, 11, 13
10, 12, 6, 5
6, 4, 14, 9
9, 14, 11, 10
16, 8, 9, 14
9, 9, 13, 6
7, 10, 9, 4
12, 8, 11, 11
10, 7, 6, 14
6, 12, 13, 8
5, 3, 15, 4
7, 14, 7, 11
9, 13, 10, 6
12, 14, 9, 16
10, 6, 5, 13
8, 7, 19, 4
8, 11, 6, 5
7, 7, 10, 11
12, 5, 8, 14
11, 9, 12, 8
5, 11, 4, 8
12, 11, 8, 5
9, 6, 9, 18
4, 6, 2, 6
11, 9, 7, 10
8, 14, 11, 6
9, 12, 12, 9
11, 8, 15, 10
7, 3, 11, 9
5, 13, 3, 14
8, 11, 8, 12
7, 8, 9, 10
9, 7, 7, 10
7, 10, 12, 10
6, 15, 13, 5
12, 9, 10, 11
9, 14, 8, 11
9, 8, 15, 5
12, 11, 14, 9
12, 7, 12, 8
10, 11, 7, 13
14, 5, 6, 13
8, 12, 6, 9
9, 7, 11, 19
15, 9, 6, 13
9, 15, 12, 3
10, 7, 6, 11
8, 8, 11, 6
5, 6, 15, 11
9, 7, 10, 13
13, 8, 17, 4
10, 11, 8, 8
7, 8, 9, 9
9, 10, 11, 8
15, 8, 16, 7
6, 12, 9, 5
12, 13, 7, 13
9, 6, 5, 8
8, 9, 12, 13
7, 6, 10, 4
7, 10, 12, 13
8, 10, 6, 8
11, 10, 7, 10
12, 5, 5, 9
8, 7, 11, 6
6, 15, 4, 8
6, 6, 9, 10
7, 7, 8, 8
10, 3, 9, 9
9, 8, 8, 17
8, 14, 6, 8
8, 13, 11, 5
15, 9, 10, 12
10, 9, 10, 9
16, 11, 11, 8
6, 12, 9, 3
14, 9, 5, 5
11, 8, 7, 10
5, 11, 12, 9
7, 5, 4, 7
6, 19, 7, 8
8, 9, 13, 8
12, 8, 13, 8
5, 11, 17, 11
12, 10, 6, 8
14, 8, 6, 10
6, 9, 6, 2
12, 13, 6, 8
9, 17, 11, 5
11, 4, 8, 7
12, 6, 10, 12
6, 10, 11, 12
7, 10, 7, 12
8, 11, 7, 8
7, 13, 9, 11
9, 8, 12, 11
12, 6, 7, 7
9, 7, 6, 8
16, 9, 7, 15
6, 12, 10, 7
12, 10, 9, 13
7, 7, 10, 7
14, 11, 12, 11
7, 10, 8, 16
7, 10, 18, 8
4, 10, 5, 8
8, 5, 9, 12
5, 13, 9, 11
6, 6, 7, 4
3, 6, 15, 5
10, 7, 9, 9
14, 5, 6, 9
9, 6, 8, 3
12, 8, 13, 7
9, 8, 7, 8
5, 12, 11, 7
10, 7, 10, 3
15, 8, 7, 4
10, 10, 8, 7
6, 8, 13, 10
15, 8, 9, 11
4, 6, 15, 11
13, 16, 9, 11
8, 9, 11, 8
10, 7, 7, 11
10, 12, 12, 6
7, 7, 9, 8
8, 12, 6, 8
8, 7, 3, 9
13, 12, 10, 4
6, 5, 9, 3
10, 5, 13, 19
10, 10, 9, 5
4, 9, 10, 4
14, 5, 6, 17
9, 7, 10, 15
10, 15, 13, 5
12, 14, 9, 7
14, 11, 10, 13
11, 13, 10, 6
12, 9, 11, 11
7, 10, 8, 12
7, 12, 9, 9
9, 19, 5, 8
8, 13, 8, 5
6, 7, 5, 14
6, 9, 6, 6
6, 7, 8, 9
8, 10, 10, 10
7, 9, 7, 9
8, 8, 11, 9
8, 14, 9, 9
9, 9, 8, 9
6, 8, 8, 11
12, 3, 4, 15
8, 12, 11, 5
11, 10, 6, 11
10, 2, 10, 6
11, 14, 10, 8
8, 14, 9, 9
9, 8, 13, 8
14, 15, 10, 3
5
*END

*EOF
