*TYPE		=  Raw
*CLASS		=  ASCII CLASS
*SAMPLE		=   
*COMMENT	=   
*FNAME		=  1-1_2-Theta_Omega.asc
*DATE		=  11-Dec-25 14:53

*GROUP_COUNT	=  1
*GONIO		=  SmartLab(In-plane), 0.000000
*ATTACHMENT	=  Z-Phi Stage
*ASC		=  0, 0, 0.000000, 0.000000
*I_MONOCHRO	=  Soller_slit_5.0deg, 0.000000
*FILTER		=  None
*C_MONOCHRO	=  None, 0.000000
*SLIT_NAME	=  0, Incident slit
*SLIT_NAME	=  1, Receiving slit # 1
*SLIT_NAME	=  2, Receiving slit # 2
*COUNTER	=  SC-70, 0
*POS_FORMAT	=  0
*SCAN_AXIS	=  2Theta/Omega
*MEAS_MODE	=  Continuous Scanning
*TARGET		=  29
*XRAY_CHAR	=  K-ALPHA
*WAVE_LENGTH1	=  1.54059
*WAVE_LENGTH2	=  1.54441
*THICKNESS	=  0, 0.000000
*MU		=  0, 0.000000
*SCAN_MODE	=  2Theta/Omega
*SPEED_DIM	=  sec./step
*XUNIT		=  deg.
*YUNIT		=  counts
*SCALE_MODE	=  1
*REP_COUNT	=  0
*SE_COUNT	=  0
*STD_MATERIAL	=  Unknown, Unknown, 0.000000, 0.000000, 0.000000, 0.000000, 0.000000, 0.000000
*LATT_CONS	=  0, Unknown, Unknown, 0.000000, 0.000000, 0.000000, 0.000000, 0.000000, 0.000000
*SEC_COUNT	=  1
*TSPEC_SIZE	=  0
*EXTRA_SIZE	=  0
*MEMO		=   

*BEGIN
*GROUP		=  0
*START		=  20
*STOP		=  80
*STEP		=  0.01
*OFFSET		=  0.000000
*SPEED		=  0.05
*SLIT_SPEC	=  0, 1.000mm, 1, 0.000000
*SLIT_SPEC	=  1, 1.000mm, 1, 0.000000
*SLIT_SPEC	=  2, 1.000mm, 1, 0.000000
*KV		=  40
*MA		=  100
*LOW		=  0.000000
*HIGH		=  0.000000
*CTEMPER	=  0, 0.000000
*CTEMPER	=  1, 0.000000
*CTEMPER	=  2, 0.000000
*PAREX		=  0, 0.000000
*PAREX		=  1, 0.000000
*PAREX		=  2, 0.000000
*PAREX		=  3, 0.000000
*PAREX		=  4, 0.000000
*PAREX		=  5, 0.000000
*PAREX		=  6, 0.000000
*PAREX		=  7, 0.000000
*PAREX		=  8, 0.000000
*PAREX		=  9, 0.000000
*PAREX		=  10, 0.000000
*PAREX		=  11, 0.000000
*PAREX		=  12, 0.000000
*PAREX		=  13, 0.000000
*PAREX		=  14, 0.000000
*PAREX		=  15, 0.000000
*FULL_SCALE	=  436968
*INDEX		=  0, 0, 0
*COUNT		=  6001
103, 99, 99, 105
111, 103, 104, 96
102, 118, 87, 105
109, 115, 95, 101
118, 122, 95, 86
107, 109, 108, 85
102, 103, 99, 100
90, 82, 102, 95
96, 93, 93, 113
111, 110, 104, 93
116, 99, 107, 97
94, 88, 122, 117
92, 99, 109, 111
94, 99, 92, 96
111, 105, 101, 117
107, 93, 118, 108
86, 95, 99, 114
106, 102, 96, 90
116, 101, 124, 107
105, 106, 101, 107
98, 107, 116, 114
115, 98, 98, 100
87, 101, 88, 93
101, 92, 105, 98
101, 102, 97, 126
104, 97, 97, 100
110, 118, 113, 115
100, 96, 101, 99
109, 102, 102, 90
100, 104, 97, 97
105, 86, 101, 94
108, 109, 111, 81
93, 78, 94, 91
98, 103, 109, 94
101, 109, 108, 95
110, 100, 102, 79
113, 109, 102, 81
101, 103, 114, 86
98, 107, 93, 90
118, 78, 94, 107
100, 112, 117, 112
90, 104, 97, 118
91, 91, 130, 105
90, 97, 103, 89
111, 99, 109, 105
97, 98, 99, 98
115, 112, 100, 96
88, 94, 102, 102
120, 93, 95, 98
93, 114, 88, 115
90, 118, 110, 101
83, 97, 115, 97
103, 111, 116, 119
86, 95, 102, 84
96, 102, 107, 91
99, 92, 113, 111
113, 98, 114, 118
123, 86, 98, 98
99, 105, 106, 110
104, 129, 98, 88
102, 100, 97, 112
104, 89, 93, 105
96, 113, 89, 76
99, 120, 101, 91
105, 89, 100, 104
84, 97, 91, 99
82, 102, 107, 91
95, 97, 101, 126
93, 108, 100, 98
106, 108, 107, 93
97, 81, 96, 112
99, 98, 105, 130
88, 119, 102, 94
79, 94, 121, 97
109, 102, 97, 100
99, 111, 112, 92
114, 99, 127, 115
103, 112, 99, 89
91, 95, 102, 87
106, 113, 104, 99
105, 104, 99, 104
103, 101, 87, 97
111, 119, 89, 102
97, 109, 87, 101
96, 99, 98, 111
80, 90, 99, 109
99, 107, 89, 106
82, 96, 103, 99
102, 102, 109, 92
123, 115, 110, 90
101, 105, 104, 94
114, 106, 107, 85
108, 101, 99, 103
107, 89, 92, 104
105, 101, 110, 103
106, 82, 93, 95
101, 94, 120, 87
99, 97, 98, 100
95, 95, 112, 123
104, 109, 87, 104
109, 91, 111, 94
108, 111, 103, 112
114, 125, 112, 109
99, 101, 108, 98
121, 117, 109, 108
92, 83, 97, 110
124, 87, 87, 104
118, 104, 101, 120
107, 112, 95, 102
110, 116, 105, 99
105, 105, 124, 126
94, 115, 96, 114
111, 100, 100, 100
100, 101, 109, 109
124, 104, 108, 112
108, 117, 106, 91
118, 121, 105, 109
93, 92, 120, 101
113, 100, 110, 109
92, 110, 114, 110
123, 104, 109, 100
114, 107, 122, 117
106, 116, 102, 103
110, 115, 129, 95
97, 106, 90, 93
103, 100, 117, 105
97, 103, 105, 108
106, 104, 115, 111
104, 117, 124, 98
120, 110, 104, 108
111, 113, 132, 123
123, 96, 96, 93
119, 97, 112, 125
93, 94, 100, 102
124, 114, 129, 125
100, 107, 129, 124
91, 135, 94, 89
112, 93, 100, 119
118, 120, 113, 109
100, 111, 109, 102
120, 131, 128, 102
133, 109, 122, 104
104, 100, 103, 110
119, 95, 106, 105
105, 116, 136, 131
98, 118, 121, 116
102, 125, 99, 114
109, 114, 113, 100
111, 113, 129, 104
118, 144, 112, 112
98, 117, 114, 116
111, 98, 119, 128
125, 114, 84, 115
116, 116, 119, 110
110, 104, 104, 109
102, 102, 113, 109
99, 121, 105, 107
121, 108, 111, 101
113, 113, 113, 106
134, 98, 84, 111
123, 105, 104, 113
116, 104, 109, 106
108, 102, 116, 126
115, 92, 118, 103
104, 125, 100, 125
118, 102, 123, 89
117, 111, 108, 113
121, 114, 123, 105
114, 117, 112, 103
96, 100, 119, 109
102, 101, 110, 102
119, 113, 116, 97
106, 118, 106, 103
97, 103, 102, 107
114, 114, 96, 100
112, 104, 85, 96
115, 101, 114, 121
97, 103, 103, 101
94, 112, 108, 119
107, 99, 92, 97
105, 131, 93, 94
98, 116, 101, 113
102, 120, 105, 106
95, 104, 101, 110
116, 92, 104, 95
116, 103, 98, 99
105, 123, 104, 103
106, 106, 105, 101
101, 94, 101, 99
99, 93, 106, 98
98, 116, 104, 107
92, 115, 86, 114
103, 112, 89, 117
98, 123, 111, 105
111, 105, 88, 96
90, 105, 115, 109
95, 98, 100, 103
103, 111, 108, 125
102, 125, 86, 116
110, 99, 110, 89
115, 92, 85, 100
99, 96, 90, 114
95, 98, 106, 107
92, 120, 109, 114
103, 96, 95, 105
108, 81, 108, 118
79, 116, 93, 116
89, 109, 92, 110
115, 100, 104, 102
100, 111, 103, 102
121, 96, 97, 102
112, 94, 96, 93
117, 114, 108, 92
98, 118, 121, 87
115, 95, 114, 116
117, 117, 118, 118
117, 106, 98, 121
115, 121, 113, 130
111, 113, 118, 94
109, 107, 111, 108
109, 120, 104, 108
101, 111, 96, 111
101, 105, 108, 112
101, 89, 101, 99
98, 92, 102, 125
91, 95, 117, 103
91, 108, 106, 104
88, 132, 114, 114
97, 111, 116, 101
110, 111, 127, 98
90, 97, 105, 111
100, 92, 93, 112
91, 104, 104, 97
98, 122, 106, 96
109, 97, 97, 109
93, 107, 93, 107
118, 93, 92, 109
110, 115, 100, 111
89, 110, 99, 104
100, 115, 129, 108
109, 104, 105, 115
108, 91, 109, 112
106, 114, 120, 102
131, 110, 105, 96
97, 111, 101, 104
113, 93, 99, 119
105, 99, 117, 127
111, 101, 96, 104
100, 99, 118, 107
111, 90, 109, 101
104, 93, 124, 114
105, 102, 109, 120
115, 110, 88, 105
107, 109, 101, 104
108, 98, 102, 95
125, 113, 107, 102
92, 104, 117, 125
106, 89, 111, 82
104, 104, 123, 92
118, 113, 108, 103
102, 121, 94, 124
125, 115, 118, 89
101, 118, 94, 118
105, 114, 92, 104
92, 98, 116, 111
117, 96, 114, 95
94, 124, 121, 122
101, 111, 98, 120
94, 97, 105, 111
95, 106, 110, 115
112, 93, 110, 107
101, 97, 108, 109
129, 105, 98, 102
124, 115, 104, 116
127, 125, 109, 130
118, 111, 98, 104
107, 135, 98, 113
116, 114, 110, 105
116, 118, 111, 139
116, 118, 132, 109
116, 130, 134, 112
125, 121, 97, 116
123, 107, 108, 128
105, 109, 118, 113
108, 126, 117, 111
103, 127, 119, 115
104, 117, 127, 114
107, 120, 107, 110
110, 112, 130, 110
125, 110, 92, 118
112, 118, 108, 123
117, 103, 116, 103
103, 120, 108, 120
114, 103, 128, 106
139, 97, 111, 112
113, 113, 104, 100
125, 128, 115, 107
115, 117, 113, 122
94, 104, 119, 99
114, 106, 95, 111
124, 119, 98, 112
104, 78, 90, 120
123, 128, 106, 108
108, 92, 127, 117
93, 112, 118, 122
112, 129, 112, 115
106, 110, 102, 111
111, 122, 119, 131
133, 124, 111, 113
121, 104, 95, 109
115, 111, 114, 105
107, 130, 119, 122
106, 119, 130, 117
111, 110, 116, 99
105, 118, 118, 100
135, 112, 114, 122
103, 126, 132, 127
115, 107, 123, 108
124, 109, 132, 116
103, 117, 121, 117
126, 111, 113, 123
129, 126, 132, 117
112, 122, 117, 127
141, 118, 124, 113
137, 130, 159, 129
132, 128, 131, 132
140, 158, 133, 99
140, 154, 145, 123
129, 152, 131, 147
148, 154, 143, 135
137, 140, 156, 98
142, 132, 125, 155
142, 161, 140, 160
123, 151, 149, 141
166, 167, 147, 154
129, 154, 165, 155
148, 150, 159, 147
130, 150, 160, 150
117, 139, 160, 137
134, 161, 150, 156
177, 119, 161, 153
161, 143, 157, 171
144, 160, 145, 174
160, 160, 182, 177
142, 168, 174, 165
160, 163, 186, 174
207, 178, 205, 170
179, 184, 191, 181
210, 201, 187, 190
181, 185, 159, 200
198, 212, 184, 232
202, 234, 235, 207
236, 263, 237, 263
255, 286, 259, 283
280, 304, 282, 315
317, 336, 329, 301
382, 381, 363, 380
389, 446, 449, 475
463, 532, 534, 554
624, 667, 712, 758
870, 892, 929, 1051
1029, 1155, 1269, 1387
1437, 1485, 1591, 1696
1799, 1880, 1913, 2015
2108, 2106, 2218, 2248
2311, 2313, 2313, 2306
2331, 2336, 2302, 2270
2187, 2230, 2158, 2124
2022, 2016, 2018, 1967
1898, 1728, 1816, 1717
1717, 1553, 1534, 1485
1440, 1423, 1381, 1307
1390, 1307, 1204, 1256
1100, 1187, 1112, 1051
1030, 1050, 1036, 1026
947, 984, 924, 926
900, 923, 837, 876
872, 798, 822, 793
802, 744, 742, 767
763, 792, 693, 724
746, 722, 749, 696
746, 661, 678, 687
667, 651, 674, 638
626, 596, 627, 610
602, 583, 537, 523
535, 525, 507, 504
523, 486, 462, 504
493, 431, 425, 450
445, 389, 399, 378
438, 376, 356, 372
346, 337, 347, 326
328, 327, 314, 311
326, 265, 329, 273
292, 273, 287, 245
272, 253, 256, 274
251, 260, 225, 212
238, 210, 200, 202
213, 209, 225, 177
234, 202, 208, 217
186, 178, 182, 208
187, 191, 177, 211
189, 182, 142, 171
164, 171, 179, 171
184, 166, 154, 187
168, 198, 156, 178
156, 166, 156, 164
162, 160, 160, 169
144, 126, 156, 161
144, 142, 145, 143
136, 156, 143, 147
134, 132, 154, 112
132, 134, 124, 129
140, 157, 147, 136
152, 127, 134, 121
119, 142, 142, 121
150, 128, 147, 141
124, 133, 133, 149
120, 118, 138, 126
115, 124, 132, 121
134, 139, 141, 128
144, 133, 138, 137
142, 128, 129, 117
119, 112, 115, 119
129, 112, 119, 133
122, 123, 115, 102
121, 127, 137, 117
123, 116, 121, 123
119, 136, 151, 113
116, 115, 133, 137
128, 118, 109, 114
124, 133, 130, 108
120, 121, 127, 136
128, 111, 107, 110
146, 104, 135, 119
147, 100, 122, 128
132, 116, 121, 136
106, 104, 122, 134
132, 103, 114, 110
118, 123, 117, 126
125, 129, 115, 123
122, 134, 114, 113
128, 108, 106, 120
116, 99, 129, 106
113, 117, 114, 125
113, 121, 110, 109
120, 112, 111, 111
131, 106, 114, 92
128, 113, 119, 114
117, 125, 110, 118
121, 105, 114, 120
98, 98, 141, 113
120, 117, 110, 116
134, 133, 121, 108
102, 123, 116, 123
99, 122, 126, 142
101, 121, 134, 121
106, 117, 123, 121
114, 123, 127, 133
118, 125, 114, 123
108, 116, 114, 132
129, 124, 114, 105
108, 128, 115, 135
98, 94, 136, 115
121, 114, 103, 114
121, 121, 103, 111
117, 132, 138, 118
105, 117, 114, 126
115, 138, 122, 122
120, 129, 98, 111
121, 108, 121, 124
122, 130, 123, 124
124, 112, 147, 111
120, 118, 121, 131
120, 127, 126, 119
126, 99, 118, 118
123, 119, 129, 133
127, 113, 102, 134
105, 133, 125, 130
147, 119, 133, 132
135, 144, 148, 120
130, 137, 119, 137
136, 147, 136, 140
153, 164, 148, 152
165, 167, 166, 194
202, 184, 191, 178
200, 204, 204, 203
205, 186, 180, 198
167, 166, 202, 187
182, 180, 163, 142
165, 142, 147, 132
142, 108, 126, 122
119, 126, 123, 114
142, 146, 135, 136
118, 126, 116, 108
112, 129, 122, 131
114, 121, 147, 143
133, 117, 115, 133
123, 133, 126, 129
114, 135, 121, 132
114, 143, 117, 101
146, 100, 102, 123
127, 133, 110, 114
120, 129, 122, 110
132, 131, 117, 126
135, 150, 137, 121
143, 128, 106, 130
118, 132, 120, 135
136, 138, 137, 143
137, 114, 114, 144
135, 123, 118, 132
131, 122, 127, 126
144, 121, 131, 123
127, 122, 118, 135
120, 133, 127, 113
124, 113, 127, 105
140, 111, 116, 117
140, 131, 115, 124
129, 110, 102, 139
135, 129, 143, 132
115, 133, 132, 127
127, 118, 116, 132
126, 128, 118, 125
115, 134, 124, 125
122, 133, 113, 139
141, 116, 146, 123
128, 132, 138, 120
111, 142, 121, 123
120, 139, 132, 147
135, 130, 131, 137
128, 139, 148, 142
135, 145, 156, 143
142, 135, 116, 154
144, 136, 146, 144
127, 143, 128, 145
142, 147, 148, 157
137, 153, 150, 143
146, 143, 142, 150
146, 174, 134, 149
161, 190, 177, 183
192, 186, 222, 217
270, 299, 354, 344
325, 342, 293, 295
268, 245, 209, 228
265, 276, 300, 291
313, 271, 273, 244
263, 272, 268, 266
280, 288, 287, 313
320, 314, 300, 302
326, 308, 309, 342
280, 297, 309, 315
268, 287, 279, 260
248, 247, 222, 209
206, 224, 219, 218
202, 214, 199, 205
204, 211, 201, 214
198, 206, 192, 227
226, 205, 212, 193
198, 222, 204, 186
218, 212, 195, 217
218, 186, 207, 222
185, 174, 216, 196
206, 182, 188, 184
173, 224, 188, 187
206, 184, 186, 209
219, 205, 223, 212
255, 181, 192, 207
203, 166, 229, 206
218, 218, 205, 208
223, 203, 194, 218
208, 198, 215, 196
226, 188, 205, 204
232, 220, 224, 222
217, 229, 221, 240
225, 210, 205, 234
206, 220, 233, 221
230, 229, 234, 250
236, 232, 237, 231
232, 261, 233, 238
236, 229, 261, 245
250, 244, 268, 288
253, 267, 283, 291
269, 283, 273, 263
279, 281, 291, 334
276, 308, 326, 330
290, 332, 338, 321
315, 347, 374, 390
345, 416, 403, 389
454, 436, 489, 494
560, 551, 580, 677
678, 764, 847, 874
1005, 1110, 1293, 1523
1792, 2042, 2272, 2850
3304, 3919, 4621, 5484
6242, 6948, 8051, 8838
9844, 10608, 11501, 12503
13189, 14397, 15126, 15943
16566, 17101, 17596, 18088
17803, 18207, 17901, 17614
17375, 16623, 16249, 15448
14913, 14389, 13539, 12794
11856, 11028, 10098, 9149
8282, 7481, 6540, 5920
5158, 4677, 4268, 3598
3461, 2877, 2513, 2214
1917, 1670, 1437, 1277
1091, 952, 920, 788
727, 714, 677, 676
620, 600, 587, 580
540, 519, 557, 528
504, 505, 517, 473
459, 424, 410, 411
396, 393, 372, 392
334, 373, 322, 358
333, 315, 287, 310
274, 279, 244, 262
250, 247, 200, 276
211, 225, 221, 218
193, 206, 184, 214
191, 202, 217, 175
190, 202, 183, 176
195, 209, 182, 164
181, 172, 170, 181
174, 162, 178, 157
167, 173, 182, 176
162, 182, 163, 179
171, 156, 135, 157
139, 169, 134, 165
154, 157, 157, 141
148, 150, 151, 142
153, 120, 152, 155
145, 141, 134, 155
149, 125, 144, 156
131, 154, 136, 152
153, 154, 148, 151
151, 163, 138, 147
156, 123, 141, 137
128, 156, 147, 148
145, 145, 154, 141
131, 144, 142, 137
125, 153, 124, 134
143, 131, 135, 144
122, 143, 141, 148
145, 152, 153, 138
145, 149, 143, 111
159, 123, 142, 151
129, 131, 131, 127
122, 119, 144, 151
130, 141, 136, 124
122, 129, 144, 125
129, 134, 124, 134
124, 117, 116, 123
121, 147, 111, 131
118, 136, 142, 135
141, 140, 134, 115
137, 138, 136, 123
132, 114, 108, 137
137, 126, 121, 146
123, 121, 149, 121
119, 107, 124, 137
136, 117, 143, 143
147, 139, 118, 127
132, 129, 128, 126
102, 130, 135, 143
129, 134, 111, 140
134, 143, 123, 127
117, 146, 109, 121
140, 115, 139, 145
120, 120, 133, 132
112, 123, 136, 123
128, 126, 148, 138
129, 122, 137, 130
117, 156, 120, 126
134, 145, 143, 140
125, 126, 109, 142
110, 117, 143, 124
122, 109, 134, 171
144, 117, 119, 143
128, 120, 151, 127
115, 139, 142, 133
121, 134, 127, 128
151, 124, 137, 110
128, 117, 119, 130
120, 122, 145, 129
143, 133, 139, 108
133, 135, 140, 124
129, 136, 119, 104
124, 125, 138, 136
137, 128, 134, 149
137, 144, 123, 135
132, 116, 142, 131
136, 136, 138, 129
128, 119, 137, 129
131, 144, 130, 146
144, 129, 145, 125
115, 144, 141, 134
122, 141, 132, 116
122, 114, 125, 134
115, 114, 130, 122
140, 133, 126, 123
122, 108, 119, 124
141, 147, 129, 117
140, 120, 129, 120
138, 121, 119, 117
137, 134, 120, 111
133, 168, 134, 128
142, 129, 125, 136
132, 116, 152, 120
132, 108, 143, 150
134, 129, 137, 117
123, 140, 117, 127
129, 145, 144, 133
126, 126, 127, 118
114, 139, 134, 149
141, 127, 126, 130
132, 131, 120, 117
148, 133, 124, 129
121, 111, 108, 116
142, 122, 139, 112
119, 121, 115, 135
112, 154, 140, 143
125, 151, 134, 130
137, 141, 125, 137
126, 122, 122, 136
137, 134, 129, 126
131, 139, 126, 121
124, 122, 153, 109
123, 145, 131, 122
113, 131, 140, 115
129, 112, 140, 130
128, 149, 136, 129
106, 130, 125, 137
154, 133, 106, 135
138, 123, 111, 140
135, 143, 130, 122
149, 123, 148, 129
128, 140, 133, 138
127, 115, 136, 149
105, 123, 125, 122
128, 109, 129, 142
125, 127, 141, 138
131, 127, 118, 125
122, 127, 133, 141
130, 122, 130, 116
129, 130, 112, 141
139, 130, 133, 134
143, 140, 138, 126
122, 117, 151, 117
138, 121, 140, 122
126, 126, 155, 126
151, 147, 137, 122
118, 125, 146, 134
118, 127, 144, 135
126, 128, 119, 124
127, 113, 151, 145
139, 137, 132, 142
144, 131, 128, 159
135, 134, 117, 110
117, 102, 116, 125
123, 106, 134, 132
143, 131, 116, 132
132, 138, 122, 114
125, 128, 123, 120
124, 141, 126, 122
127, 134, 118, 125
146, 134, 121, 119
117, 136, 131, 135
134, 125, 116, 138
149, 126, 125, 117
115, 129, 117, 126
115, 137, 130, 132
129, 119, 149, 145
130, 122, 103, 136
122, 134, 120, 153
136, 127, 127, 147
128, 143, 136, 109
120, 117, 130, 120
109, 136, 132, 134
142, 129, 127, 130
134, 136, 142, 120
142, 131, 126, 137
128, 142, 121, 117
132, 130, 119, 137
142, 105, 136, 122
150, 131, 136, 153
132, 115, 139, 115
131, 140, 133, 115
134, 139, 113, 122
118, 128, 131, 118
140, 117, 127, 139
122, 137, 121, 140
158, 128, 117, 132
127, 112, 121, 134
119, 130, 118, 143
139, 135, 127, 127
140, 150, 140, 125
164, 122, 126, 125
141, 138, 113, 123
135, 138, 119, 137
148, 135, 128, 128
124, 134, 142, 123
136, 109, 119, 125
137, 117, 130, 122
116, 135, 112, 139
138, 112, 141, 141
116, 127, 139, 121
107, 134, 124, 123
131, 123, 130, 137
133, 130, 161, 137
135, 112, 124, 136
132, 97, 129, 132
148, 121, 122, 131
132, 126, 122, 115
132, 126, 132, 130
132, 125, 140, 113
130, 126, 131, 133
107, 144, 145, 130
148, 131, 134, 130
132, 144, 144, 144
147, 127, 126, 130
116, 127, 140, 123
137, 131, 138, 139
146, 138, 142, 143
116, 137, 139, 146
127, 152, 115, 117
113, 135, 130, 141
125, 138, 137, 136
116, 141, 135, 129
124, 122, 137, 128
142, 131, 119, 147
132, 121, 123, 132
117, 133, 128, 153
147, 137, 121, 152
118, 137, 125, 124
145, 150, 121, 131
128, 130, 131, 142
125, 137, 124, 140
131, 137, 132, 134
128, 130, 130, 147
126, 147, 121, 122
131, 142, 151, 151
121, 117, 115, 129
115, 139, 127, 138
137, 122, 139, 139
142, 110, 142, 127
123, 99, 140, 126
134, 115, 124, 125
120, 116, 141, 129
100, 132, 129, 145
144, 110, 131, 142
115, 139, 135, 127
137, 138, 155, 141
114, 116, 144, 123
130, 117, 128, 131
124, 114, 124, 142
122, 134, 125, 142
147, 129, 139, 127
142, 140, 133, 133
128, 140, 126, 131
137, 141, 133, 123
126, 146, 124, 130
119, 106, 137, 131
133, 119, 122, 145
136, 147, 127, 150
148, 115, 138, 130
129, 133, 113, 131
131, 147, 131, 124
134, 147, 123, 120
125, 101, 115, 112
130, 136, 137, 159
129, 140, 136, 125
111, 126, 128, 120
138, 149, 121, 128
144, 157, 144, 142
144, 149, 135, 131
144, 130, 131, 144
129, 140, 123, 132
118, 133, 129, 127
138, 126, 123, 128
122, 132, 148, 126
151, 135, 123, 131
146, 134, 133, 127
133, 142, 139, 136
140, 134, 143, 123
128, 127, 148, 134
136, 145, 117, 133
119, 118, 140, 125
146, 114, 130, 116
142, 144, 152, 132
120, 145, 127, 121
115, 142, 139, 155
149, 120, 122, 133
148, 131, 142, 159
128, 132, 136, 124
115, 131, 109, 136
134, 119, 121, 141
129, 115, 149, 114
116, 133, 143, 121
146, 133, 139, 122
145, 141, 128, 125
131, 109, 130, 125
152, 136, 139, 148
118, 109, 135, 123
118, 125, 134, 174
141, 122, 129, 125
116, 143, 140, 141
143, 134, 138, 132
115, 134, 130, 135
145, 140, 121, 126
147, 146, 144, 134
131, 140, 133, 141
132, 137, 134, 140
117, 140, 116, 143
128, 131, 129, 131
135, 132, 148, 137
137, 153, 126, 130
133, 139, 140, 136
146, 134, 131, 126
123, 135, 153, 114
137, 143, 136, 132
118, 124, 136, 133
135, 129, 127, 147
124, 131, 128, 122
149, 132, 112, 128
130, 140, 127, 147
147, 129, 149, 132
142, 157, 145, 155
135, 127, 127, 127
143, 125, 131, 144
111, 104, 125, 134
132, 137, 142, 130
120, 136, 144, 131
148, 115, 119, 130
132, 146, 138, 118
122, 129, 149, 149
136, 118, 126, 147
132, 155, 128, 170
129, 140, 138, 137
138, 151, 128, 132
129, 119, 135, 142
141, 131, 123, 135
149, 146, 151, 142
119, 142, 131, 153
125, 146, 119, 150
123, 133, 128, 126
114, 140, 156, 125
118, 144, 125, 118
135, 137, 143, 128
141, 142, 138, 128
146, 138, 133, 116
157, 143, 137, 130
112, 132, 120, 133
136, 110, 125, 127
140, 150, 130, 125
136, 116, 141, 112
126, 129, 139, 131
114, 161, 129, 134
136, 131, 149, 131
132, 127, 126, 146
131, 135, 142, 127
142, 127, 114, 143
139, 146, 159, 132
144, 139, 141, 152
127, 131, 126, 127
130, 141, 117, 135
121, 115, 130, 148
116, 111, 150, 132
123, 111, 131, 130
137, 126, 128, 162
128, 145, 137, 113
136, 124, 130, 142
134, 154, 119, 112
144, 138, 141, 151
128, 140, 134, 146
149, 138, 122, 151
137, 132, 121, 126
136, 121, 114, 131
147, 134, 143, 136
123, 126, 152, 147
132, 129, 136, 134
116, 134, 129, 133
136, 115, 142, 134
106, 124, 150, 143
118, 137, 139, 163
139, 153, 137, 127
129, 144, 134, 147
164, 145, 125, 122
133, 154, 133, 132
138, 133, 129, 143
130, 134, 144, 123
137, 128, 126, 128
134, 126, 154, 139
130, 117, 135, 145
143, 135, 144, 154
154, 128, 118, 137
126, 147, 149, 133
139, 141, 125, 151
131, 122, 127, 130
110, 134, 126, 136
165, 134, 143, 141
137, 146, 120, 139
137, 144, 140, 127
127, 123, 130, 116
174, 146, 125, 129
143, 134, 135, 121
133, 134, 163, 127
147, 129, 138, 134
129, 138, 140, 130
127, 130, 126, 122
138, 137, 142, 145
143, 118, 118, 144
137, 105, 127, 146
150, 153, 167, 143
164, 131, 111, 152
129, 130, 154, 122
145, 158, 154, 136
123, 120, 115, 131
129, 133, 156, 138
133, 147, 152, 149
137, 132, 125, 131
140, 133, 145, 143
139, 151, 125, 142
134, 138, 127, 121
124, 129, 140, 130
133, 146, 175, 134
147, 139, 111, 150
143, 155, 132, 159
136, 127, 143, 125
146, 139, 154, 117
136, 138, 129, 131
126, 140, 149, 170
146, 117, 121, 136
129, 126, 130, 133
124, 139, 149, 124
133, 111, 138, 143
121, 137, 132, 127
130, 139, 125, 155
136, 133, 157, 147
130, 159, 160, 139
131, 140, 127, 129
126, 148, 139, 147
127, 129, 151, 146
139, 144, 134, 128
139, 152, 153, 124
145, 142, 149, 157
141, 143, 129, 164
139, 124, 141, 139
115, 155, 148, 142
150, 135, 135, 146
150, 128, 154, 145
162, 115, 130, 134
133, 139, 149, 138
138, 141, 125, 113
150, 133, 147, 128
130, 130, 125, 152
142, 132, 146, 141
147, 156, 135, 143
126, 138, 133, 144
141, 139, 132, 140
135, 123, 150, 165
122, 146, 122, 144
162, 140, 136, 147
141, 122, 139, 121
131, 140, 120, 123
130, 136, 123, 125
127, 125, 152, 129
140, 126, 134, 151
144, 147, 123, 141
142, 141, 150, 135
130, 121, 132, 136
140, 135, 157, 155
147, 160, 128, 132
126, 129, 135, 142
152, 135, 120, 156
134, 149, 148, 144
137, 154, 133, 119
152, 138, 120, 133
126, 120, 163, 150
138, 141, 128, 146
136, 133, 129, 143
141, 154, 141, 135
138, 141, 137, 123
147, 156, 133, 113
166, 113, 128, 144
141, 143, 163, 125
131, 146, 137, 133
131, 130, 132, 125
137, 151, 152, 135
129, 142, 139, 152
112, 143, 167, 141
144, 156, 139, 147
138, 146, 138, 122
126, 158, 165, 129
149, 144, 151, 138
159, 124, 135, 138
129, 147, 167, 148
137, 129, 133, 144
140, 139, 154, 141
137, 138, 116, 134
139, 118, 143, 138
129, 153, 145, 136
151, 134, 136, 147
139, 143, 140, 148
145, 145, 140, 171
137, 151, 152, 145
146, 154, 139, 130
162, 160, 132, 159
129, 166, 145, 169
131, 169, 162, 146
128, 163, 160, 150
149, 152, 173, 149
158, 183, 172, 158
161, 153, 169, 159
161, 179, 192, 161
167, 157, 164, 169
150, 159, 160, 158
176, 170, 164, 167
181, 150, 151, 145
153, 175, 152, 149
151, 174, 158, 150
144, 159, 153, 139
164, 134, 158, 149
135, 152, 136, 139
160, 148, 153, 147
151, 149, 144, 140
143, 148, 160, 143
142, 138, 148, 152
163, 128, 141, 175
132, 154, 152, 158
140, 117, 135, 140
136, 140, 141, 135
130, 152, 135, 128
152, 141, 140, 128
155, 147, 161, 140
132, 153, 146, 136
126, 142, 143, 129
147, 136, 135, 157
116, 136, 152, 158
143, 143, 140, 135
130, 157, 129, 143
109, 154, 155, 150
144, 150, 134, 135
136, 150, 158, 155
125, 154, 152, 136
156, 164, 142, 134
133, 139, 130, 137
131, 128, 130, 153
147, 157, 172, 133
130, 150, 135, 147
141, 137, 134, 142
127, 116, 140, 147
152, 147, 147, 146
150, 158, 119, 139
131, 150, 134, 133
137, 133, 144, 159
143, 145, 121, 142
151, 145, 154, 153
140, 143, 166, 150
152, 158, 144, 111
128, 138, 153, 159
158, 132, 150, 138
156, 129, 125, 144
149, 189, 148, 151
151, 142, 122, 152
144, 127, 166, 141
135, 165, 144, 145
128, 152, 137, 145
137, 145, 153, 140
145, 155, 146, 154
155, 145, 154, 143
173, 167, 142, 149
128, 123, 135, 158
148, 156, 144, 152
161, 164, 159, 174
126, 169, 149, 159
139, 157, 153, 130
148, 131, 162, 155
157, 136, 146, 148
145, 166, 144, 144
162, 127, 150, 163
162, 159, 170, 138
148, 139, 150, 142
142, 151, 164, 140
155, 146, 142, 148
136, 139, 142, 135
152, 132, 143, 148
142, 157, 140, 129
135, 137, 145, 137
148, 140, 154, 159
150, 153, 124, 143
149, 156, 158, 131
167, 126, 140, 145
132, 115, 159, 138
151, 148, 164, 124
130, 125, 152, 157
138, 135, 144, 139
152, 124, 150, 146
147, 152, 163, 160
133, 137, 142, 146
114, 147, 161, 145
121, 136, 143, 139
126, 156, 153, 152
146, 140, 149, 152
139, 146, 149, 157
152, 161, 156, 137
133, 160, 132, 135
184, 168, 129, 134
142, 157, 160, 150
164, 131, 123, 140
152, 133, 134, 133
157, 117, 139, 139
129, 158, 144, 185
137, 137, 130, 165
148, 127, 131, 136
143, 140, 169, 121
139, 121, 154, 122
149, 159, 129, 155
135, 149, 143, 148
114, 155, 148, 139
154, 147, 156, 149
143, 168, 145, 138
144, 151, 136, 121
147, 161, 154, 142
152, 155, 141, 139
147, 140, 149, 129
130, 157, 138, 146
133, 141, 153, 123
141, 156, 152, 141
143, 155, 145, 147
127, 148, 128, 140
159, 168, 145, 129
118, 150, 159, 161
152, 122, 149, 165
149, 142, 134, 155
148, 153, 172, 125
156, 142, 170, 144
130, 155, 160, 141
141, 149, 150, 132
138, 136, 137, 160
155, 122, 147, 152
158, 135, 143, 136
151, 155, 170, 138
138, 155, 170, 146
131, 143, 135, 132
142, 144, 143, 168
132, 154, 151, 149
157, 140, 136, 143
150, 139, 145, 147
148, 161, 143, 129
152, 142, 156, 145
150, 122, 149, 143
140, 165, 152, 136
137, 138, 130, 154
158, 143, 134, 138
144, 158, 155, 141
147, 150, 151, 139
137, 147, 152, 136
132, 131, 132, 152
134, 146, 127, 141
134, 151, 145, 157
134, 128, 150, 137
142, 139, 133, 156
171, 186, 158, 143
138, 143, 130, 157
143, 152, 130, 152
153, 137, 148, 120
148, 142, 125, 161
142, 127, 153, 157
131, 143, 162, 152
155, 156, 157, 149
149, 133, 156, 156
126, 154, 167, 151
140, 129, 157, 147
157, 152, 161, 143
152, 158, 163, 179
151, 135, 148, 159
142, 164, 133, 122
138, 133, 144, 157
163, 143, 147, 146
148, 161, 133, 159
147, 151, 142, 141
175, 167, 145, 166
160, 160, 157, 154
148, 137, 156, 135
127, 165, 130, 144
160, 156, 151, 149
154, 154, 138, 134
178, 169, 156, 152
173, 169, 179, 152
153, 159, 140, 148
166, 145, 148, 206
157, 162, 178, 160
153, 164, 173, 168
196, 136, 157, 168
160, 161, 165, 137
170, 158, 124, 141
159, 150, 152, 143
133, 174, 156, 147
146, 144, 138, 140
143, 133, 131, 153
160, 162, 150, 164
145, 160, 135, 145
160, 155, 160, 153
149, 158, 147, 150
170, 188, 182, 153
163, 155, 149, 147
151, 142, 160, 145
149, 173, 142, 179
156, 162, 152, 147
192, 150, 155, 137
139, 163, 144, 170
166, 157, 138, 161
165, 144, 161, 177
137, 161, 158, 164
163, 138, 166, 150
170, 154, 167, 156
170, 158, 164, 160
150, 177, 157, 156
177, 175, 162, 177
168, 177, 190, 172
175, 186, 176, 205
180, 166, 180, 172
205, 195, 199, 191
184, 208, 200, 200
178, 196, 200, 222
199, 220, 229, 222
219, 228, 229, 176
216, 226, 200, 225
210, 217, 204, 232
232, 196, 201, 228
215, 217, 214, 208
223, 227, 193, 219
223, 198, 205, 201
185, 196, 192, 181
224, 202, 193, 213
218, 216, 220, 200
191, 175, 203, 206
185, 207, 183, 183
211, 212, 204, 177
156, 176, 200, 188
200, 166, 167, 202
179, 194, 186, 189
196, 166, 189, 171
168, 183, 220, 175
182, 178, 163, 201
174, 179, 187, 168
166, 153, 173, 170
165, 188, 180, 175
188, 173, 172, 187
154, 164, 158, 181
187, 167, 182, 180
147, 157, 175, 169
168, 167, 196, 190
170, 182, 196, 194
192, 170, 181, 175
180, 186, 188, 179
155, 163, 162, 187
183, 161, 165, 188
201, 162, 165, 144
186, 175, 178, 170
173, 168, 161, 164
173, 157, 162, 180
180, 176, 159, 168
164, 161, 170, 189
169, 189, 164, 164
205, 192, 189, 170
181, 173, 187, 169
186, 177, 163, 192
200, 162, 181, 191
202, 199, 210, 199
171, 203, 218, 222
182, 193, 210, 220
211, 234, 255, 222
236, 243, 229, 252
253, 252, 272, 296
318, 274, 342, 365
344, 412, 407, 453
495, 510, 573, 625
650, 691, 744, 801
816, 856, 832, 939
1014, 990, 1037, 1080
1148, 1143, 1144, 1142
1179, 1263, 1229, 1202
1295, 1231, 1241, 1264
1143, 1166, 1217, 1269
1166, 1125, 1171, 1097
1046, 1038, 974, 1024
951, 912, 893, 867
838, 793, 782, 805
707, 706, 675, 656
668, 593, 551, 543
495, 509, 461, 460
430, 397, 419, 346
311, 318, 313, 318
256, 259, 253, 262
206, 196, 233, 233
192, 218, 183, 210
225, 196, 210, 205
197, 181, 180, 189
189, 202, 221, 171
179, 185, 171, 190
184, 173, 161, 184
187, 192, 146, 162
179, 182, 190, 163
166, 164, 175, 181
184, 150, 151, 165
166, 166, 179, 141
156, 177, 144, 173
155, 154, 157, 165
173, 143, 153, 160
156, 154, 164, 184
131, 165, 167, 151
142, 174, 178, 159
149, 167, 168, 166
153, 163, 160, 147
156, 177, 166, 176
167, 159, 149, 174
157, 146, 148, 168
166, 135, 172, 180
161, 162, 159, 188
163, 162, 160, 147
160, 148, 162, 131
173, 152, 158, 139
167, 177, 160, 166
168, 153, 161, 199
159, 139, 158, 164
173, 161, 187, 146
143, 138, 175, 164
187, 143, 138, 169
164, 147, 161, 159
155, 158, 168, 151
145, 163, 154, 179
197, 171, 162, 166
142, 182, 169, 159
163, 161, 178, 167
170, 158, 149, 147
139, 161, 160, 161
174, 160, 148, 176
157, 157, 138, 160
158, 149, 135, 146
169, 154, 148, 163
139, 160, 162, 152
163, 164, 184, 157
153, 140, 158, 152
188, 190, 165, 169
185, 146, 152, 175
163, 160, 157, 166
119, 165, 163, 161
172, 156, 161, 152
163, 172, 140, 184
147, 156, 163, 180
156, 144, 149, 167
143, 158, 150, 178
166, 151, 156, 145
180, 146, 156, 155
160, 151, 160, 144
161, 156, 157, 161
167, 162, 150, 159
147, 164, 148, 139
126, 150, 143, 154
159, 163, 166, 180
167, 157, 147, 152
156, 172, 152, 172
152, 159, 145, 175
169, 168, 157, 163
152, 162, 149, 181
147, 180, 141, 118
173, 160, 187, 171
138, 172, 139, 158
140, 162, 170, 163
182, 168, 161, 178
141, 167, 146, 136
161, 173, 184, 136
155, 164, 166, 161
162, 152, 154, 140
147, 142, 180, 158
161, 165, 169, 177
171, 146, 142, 150
138, 176, 162, 164
151, 152, 142, 168
169, 165, 164, 162
165, 178, 152, 158
164, 149, 146, 148
163, 179, 148, 138
154, 187, 160, 169
149, 173, 166, 158
146, 190, 155, 161
156, 143, 161, 180
175, 160, 146, 157
161, 146, 145, 144
171, 144, 160, 163
171, 167, 160, 171
177, 159, 156, 170
155, 159, 142, 154
178, 164, 157, 159
161, 160, 166, 153
175, 161, 169, 182
167, 184, 153, 166
170, 167, 152, 169
149, 155, 148, 153
141, 159, 151, 164
185
*END

*EOF
