*TYPE		=  Raw
*CLASS		=  ASCII CLASS
*SAMPLE		=   
*COMMENT	=   
*FNAME		=  1-2_2-Theta_Omega.asc
*DATE		=  11-Dec-25 15:02

*GROUP_COUNT	=  1
*GONIO		=  SmartLab(In-plane), 0.000000
*ATTACHMENT	=  Z-Phi Stage
*ASC		=  0, 0, 0.000000, 0.000000
*I_MONOCHRO	=  Soller_slit_5.0deg, 0.000000
*FILTER		=  None
*C_MONOCHRO	=  None, 0.000000
*SLIT_NAME	=  0, Incident slit
*SLIT_NAME	=  1, Receiving slit # 1
*SLIT_NAME	=  2, Receiving slit # 2
*COUNTER	=  SC-70, 0
*POS_FORMAT	=  0
*SCAN_AXIS	=  2Theta/Omega
*MEAS_MODE	=  Continuous Scanning
*TARGET		=  29
*XRAY_CHAR	=  K-ALPHA
*WAVE_LENGTH1	=  1.54059
*WAVE_LENGTH2	=  1.54441
*THICKNESS	=  0, 0.000000
*MU		=  0, 0.000000
*SCAN_MODE	=  2Theta/Omega
*SPEED_DIM	=  sec./step
*XUNIT		=  deg.
*YUNIT		=  counts
*SCALE_MODE	=  1
*REP_COUNT	=  0
*SE_COUNT	=  0
*STD_MATERIAL	=  Unknown, Unknown, 0.000000, 0.000000, 0.000000, 0.000000, 0.000000, 0.000000
*LATT_CONS	=  0, Unknown, Unknown, 0.000000, 0.000000, 0.000000, 0.000000, 0.000000, 0.000000
*SEC_COUNT	=  1
*TSPEC_SIZE	=  0
*EXTRA_SIZE	=  0
*MEMO		=   

*BEGIN
*GROUP		=  0
*START		=  20
*STOP		=  80
*STEP		=  0.01
*OFFSET		=  0.000000
*SPEED		=  0.05
*SLIT_SPEC	=  0, 1.000mm, 1, 0.000000
*SLIT_SPEC	=  1, 1.000mm, 1, 0.000000
*SLIT_SPEC	=  2, 1.000mm, 1, 0.000000
*KV		=  40
*MA		=  100
*LOW		=  0.000000
*HIGH		=  0.000000
*CTEMPER	=  0, 0.000000
*CTEMPER	=  1, 0.000000
*CTEMPER	=  2, 0.000000
*PAREX		=  0, 0.000000
*PAREX		=  1, 0.000000
*PAREX		=  2, 0.000000
*PAREX		=  3, 0.000000
*PAREX		=  4, 0.000000
*PAREX		=  5, 0.000000
*PAREX		=  6, 0.000000
*PAREX		=  7, 0.000000
*PAREX		=  8, 0.000000
*PAREX		=  9, 0.000000
*PAREX		=  10, 0.000000
*PAREX		=  11, 0.000000
*PAREX		=  12, 0.000000
*PAREX		=  13, 0.000000
*PAREX		=  14, 0.000000
*PAREX		=  15, 0.000000
*FULL_SCALE	=  19513530
*INDEX		=  0, 0, 0
*COUNT		=  6001
88, 91, 97, 79
97, 70, 74, 72
82, 85, 88, 79
83, 89, 85, 80
103, 71, 91, 98
82, 83, 83, 74
102, 82, 105, 82
101, 77, 80, 82
93, 89, 72, 95
84, 98, 78, 100
79, 94, 83, 88
102, 77, 91, 103
99, 92, 108, 125
146, 149, 181, 176
201, 210, 229, 191
163, 183, 164, 164
145, 144, 109, 125
99, 88, 97, 102
110, 91, 95, 72
86, 88, 88, 86
76, 76, 78, 66
86, 93, 90, 112
88, 79, 94, 79
99, 81, 103, 98
79, 86, 79, 77
87, 80, 89, 83
92, 97, 87, 99
101, 88, 87, 94
98, 74, 75, 108
90, 100, 101, 84
96, 80, 91, 104
69, 83, 95, 100
98, 80, 92, 80
83, 75, 97, 81
105, 91, 92, 89
95, 71, 77, 89
89, 82, 84, 91
83, 85, 101, 91
104, 96, 87, 107
90, 86, 84, 84
81, 111, 103, 84
92, 97, 84, 92
88, 86, 81, 70
80, 77, 107, 77
91, 70, 90, 91
102, 102, 78, 73
82, 108, 100, 114
85, 84, 100, 85
77, 97, 89, 96
94, 83, 75, 98
72, 91, 88, 87
77, 84, 73, 77
105, 75, 94, 86
94, 91, 78, 74
102, 101, 70, 83
93, 94, 94, 86
91, 79, 110, 83
95, 71, 84, 107
78, 71, 90, 100
80, 81, 80, 93
91, 100, 82, 102
92, 79, 86, 98
83, 95, 68, 109
72, 92, 89, 84
97, 86, 113, 73
92, 93, 87, 105
85, 76, 90, 101
101, 92, 94, 91
87, 81, 89, 75
107, 86, 77, 102
85, 86, 83, 86
82, 72, 92, 95
79, 85, 90, 89
86, 99, 110, 81
98, 91, 81, 77
90, 66, 84, 99
79, 85, 86, 86
92, 91, 104, 77
81, 82, 79, 94
100, 93, 71, 85
97, 87, 84, 88
77, 100, 88, 104
88, 88, 110, 86
92, 87, 88, 84
97, 73, 90, 103
74, 67, 75, 91
92, 107, 79, 84
90, 100, 74, 89
103, 89, 77, 103
88, 115, 88, 90
88, 96, 92, 95
86, 78, 89, 99
88, 97, 87, 93
87, 80, 79, 80
92, 89, 70, 86
75, 103, 93, 98
98, 74, 87, 76
91, 68, 101, 101
78, 92, 80, 80
91, 67, 90, 87
87, 94, 80, 91
81, 83, 84, 107
87, 93, 104, 63
105, 93, 98, 99
94, 95, 85, 90
83, 84, 88, 90
99, 81, 79, 109
80, 85, 91, 100
94, 95, 90, 83
93, 99, 77, 73
70, 83, 79, 88
80, 95, 90, 108
88, 86, 102, 98
96, 75, 72, 105
86, 82, 70, 87
79, 90, 67, 92
91, 96, 81, 90
77, 87, 82, 96
90, 104, 82, 77
90, 78, 105, 82
99, 81, 99, 91
94, 97, 90, 92
98, 81, 87, 82
82, 87, 108, 85
84, 82, 88, 88
74, 76, 95, 93
88, 90, 103, 85
85, 79, 93, 91
97, 71, 91, 85
97, 93, 103, 102
91, 80, 103, 76
77, 86, 75, 88
109, 94, 82, 86
92, 98, 94, 97
77, 81, 83, 74
94, 79, 72, 96
96, 72, 108, 94
85, 85, 92, 110
86, 80, 95, 89
91, 81, 94, 90
98, 88, 92, 106
94, 72, 90, 85
84, 89, 89, 92
100, 73, 87, 96
94, 94, 88, 80
92, 86, 83, 82
90, 90, 83, 86
81, 94, 96, 90
109, 86, 88, 81
97, 95, 73, 78
82, 83, 79, 87
108, 86, 88, 102
88, 88, 78, 82
85, 97, 86, 104
85, 81, 66, 80
89, 97, 112, 88
82, 99, 93, 83
87, 76, 85, 92
88, 99, 82, 91
72, 95, 98, 89
90, 91, 89, 76
86, 106, 99, 100
86, 81, 98, 85
94, 90, 94, 99
95, 87, 107, 94
102, 91, 85, 88
100, 101, 98, 98
86, 88, 104, 89
98, 85, 89, 91
98, 112, 83, 94
106, 86, 101, 76
93, 97, 96, 79
75, 78, 99, 81
77, 92, 94, 105
83, 113, 99, 98
105, 73, 92, 90
104, 92, 89, 93
95, 103, 88, 86
97, 125, 97, 96
82, 97, 82, 73
83, 90, 105, 98
96, 92, 97, 93
107, 68, 92, 95
94, 90, 88, 90
107, 88, 96, 101
87, 99, 97, 88
75, 94, 95, 91
89, 86, 104, 96
108, 99, 97, 105
109, 105, 90, 100
85, 96, 95, 99
92, 90, 96, 89
91, 100, 92, 102
86, 94, 93, 91
116, 101, 105, 114
78, 90, 102, 113
100, 113, 118, 119
97, 115, 77, 101
84, 90, 99, 80
81, 86, 102, 89
90, 85, 103, 102
75, 86, 95, 100
94, 97, 107, 90
83, 113, 102, 86
96, 103, 104, 101
91, 113, 117, 94
105, 96, 91, 86
117, 106, 101, 104
100, 82, 94, 94
96, 106, 97, 97
88, 93, 103, 108
94, 113, 101, 99
102, 100, 100, 109
94, 77, 103, 81
98, 100, 100, 111
122, 113, 124, 111
122, 122, 125, 121
107, 118, 115, 124
105, 130, 128, 111
99, 115, 104, 99
94, 94, 97, 87
92, 100, 97, 110
97, 101, 99, 86
93, 102, 90, 110
94, 108, 118, 101
73, 117, 93, 122
109, 86, 87, 93
112, 98, 112, 82
81, 116, 108, 113
114, 112, 119, 100
112, 87, 95, 101
90, 82, 98, 111
97, 111, 104, 90
113, 105, 94, 118
104, 97, 88, 109
107, 126, 88, 100
92, 95, 94, 104
97, 92, 84, 102
99, 85, 98, 88
106, 84, 90, 98
94, 104, 91, 96
87, 91, 106, 108
85, 96, 95, 121
90, 98, 100, 111
94, 110, 98, 107
85, 100, 94, 95
85, 106, 96, 106
97, 98, 98, 94
118, 104, 83, 78
107, 92, 91, 113
111, 91, 90, 116
108, 117, 85, 106
83, 101, 90, 81
101, 102, 115, 89
110, 108, 101, 104
128, 99, 106, 102
100, 111, 92, 84
96, 98, 86, 119
102, 103, 95, 101
100, 113, 98, 95
117, 99, 113, 88
106, 103, 86, 113
94, 96, 103, 97
114, 113, 105, 106
93, 130, 94, 98
106, 121, 93, 110
96, 98, 92, 100
97, 98, 105, 83
120, 90, 110, 93
109, 99, 100, 102
107, 101, 141, 123
132, 128, 110, 140
143, 154, 152, 154
170, 191, 169, 204
172, 187, 191, 201
195, 222, 284, 267
344, 365, 465, 590
675, 867, 1017, 1291
1538, 1702, 2032, 2233
2468, 2801, 2898, 3040
3095, 3086, 2979, 2798
2613, 2290, 2050, 1746
1525, 1291, 1136, 920
774, 652, 583, 535
417, 370, 346, 336
287, 289, 272, 232
238, 248, 231, 240
262, 224, 208, 198
242, 220, 214, 210
221, 223, 224, 230
231, 204, 208, 239
218, 215, 232, 210
230, 244, 208, 209
219, 241, 225, 228
222, 247, 201, 210
246, 219, 251, 239
203, 224, 246, 217
249, 230, 241, 248
232, 261, 247, 251
249, 232, 239, 234
241, 229, 245, 233
247, 252, 253, 272
239, 234, 243, 255
267, 257, 268, 246
263, 232, 303, 272
278, 255, 294, 273
273, 265, 323, 277
309, 309, 287, 322
298, 306, 322, 312
303, 316, 329, 336
315, 331, 315, 358
341, 346, 350, 379
357, 331, 392, 333
400, 388, 361, 392
387, 374, 373, 374
412, 431, 407, 412
459, 453, 484, 441
435, 470, 513, 452
529, 503, 523, 536
491, 559, 555, 591
557, 621, 621, 600
627, 639, 690, 695
731, 711, 766, 785
822, 920, 968, 1039
1221, 1321, 1597, 1817
2027, 2550, 3023, 3381
3807, 4419, 4754, 5196
5559, 5974, 6208, 6240
6382, 6386, 6181, 5895
5610, 5157, 4586, 4217
3747, 3280, 3034, 2795
2544, 2407, 2254, 2327
2175, 2140, 2244, 2237
2245, 2442, 2370, 2497
2485, 2545, 2489, 2534
2548, 2462, 2362, 2306
2249, 2035, 2023, 2030
1967, 1957, 1894, 1956
1907, 1905, 1816, 1821
1871, 1869, 1943, 1921
1922, 1877, 2060, 1920
1940, 2064, 1955, 2077
2096, 2082, 2076, 2107
2167, 2204, 2235, 2177
2314, 2262, 2203, 2273
2394, 2369, 2370, 2338
2381, 2371, 2443, 2423
2474, 2541, 2562, 2559
2586, 2697, 2594, 2646
2694, 2738, 2740, 2731
2818, 2780, 2817, 2904
2981, 3021, 2992, 2928
3079, 3050, 3047, 3131
3186, 3268, 3246, 3360
3508, 3356, 3516, 3616
3693, 3734, 3813, 3828
4020, 4078, 4164, 4448
4600, 4608, 4879, 5143
5451, 5717, 6345, 6960
7383, 8076, 9077, 10186
11421, 13012, 15407, 17936
19285.3, 26289.6, 32733.6, 43613.7
59116.6, 68642.5, 93204.4, 117299
156851, 197476, 243751, 307864
367541, 444262, 518741, 585469
652898, 725743, 775427, 789249
813064, 781965, 748577, 715050
644166, 613347, 559180, 508188
477416, 434549, 376880, 334761
270508, 222971, 189771, 154936
125284, 93531.3, 77654.8, 58556.3
43520.3, 37076.3, 29558.3, 23067.6
17604.2, 14942.6, 11673.9, 10518
9139, 7959, 7272, 6644
6117, 5647, 5235, 4890
4791, 4335, 4204, 3961
3808, 3679, 3490, 3315
3137, 3070, 2970, 2829
2776, 2658, 2499, 2542
2469, 2310, 2319, 2177
2064, 2088, 2006, 1901
1875, 1892, 1728, 1750
1700, 1603, 1634, 1562
1611, 1548, 1518, 1396
1387, 1359, 1324, 1325
1277, 1275, 1208, 1229
1164, 1187, 1127, 1155
1102, 1120, 1080, 1113
1032, 1094, 1020, 1000
992, 962, 948, 980
896, 912, 852, 908
832, 843, 759, 793
778, 742, 779, 816
796, 733, 699, 696
689, 657, 689, 649
691, 681, 628, 565
574, 617, 582, 567
504, 542, 523, 497
479, 520, 483, 502
462, 512, 474, 440
414, 426, 430, 423
375, 411, 389, 378
394, 380, 356, 324
354, 372, 334, 312
298, 314, 296, 312
301, 267, 287, 250
276, 234, 244, 268
249, 260, 247, 231
220, 254, 230, 216
212, 251, 207, 218
219, 197, 184, 193
200, 183, 183, 200
173, 196, 212, 167
175, 192, 188, 184
191, 182, 187, 173
163, 182, 170, 158
170, 172, 167, 184
156, 160, 164, 166
161, 179, 141, 153
157, 184, 162, 158
166, 153, 157, 155
146, 144, 167, 142
154, 157, 149, 157
158, 157, 137, 139
138, 150, 138, 132
134, 145, 155, 166
130, 140, 126, 115
137, 126, 156, 143
128, 125, 137, 144
137, 130, 143, 134
135, 165, 151, 137
131, 147, 153, 136
123, 154, 136, 160
98, 114, 137, 144
136, 145, 124, 135
139, 141, 146, 136
121, 131, 144, 162
188, 232, 206, 202
233, 267, 303, 332
336, 313, 321, 265
235, 238, 194, 184
153, 133, 174, 162
126, 111, 128, 139
106, 147, 138, 135
122, 122, 120, 108
133, 143, 114, 143
118, 144, 130, 123
153, 146, 120, 104
124, 122, 133, 132
127, 137, 112, 131
113, 108, 127, 133
135, 128, 120, 108
134, 143, 121, 127
124, 105, 114, 97
124, 132, 128, 109
111, 119, 102, 141
118, 129, 136, 102
117, 111, 104, 102
111, 116, 126, 101
104, 133, 101, 124
115, 109, 115, 135
117, 114, 116, 114
117, 121, 114, 97
112, 118, 118, 120
106, 121, 148, 120
118, 107, 115, 106
106, 111, 122, 124
118, 125, 132, 95
92, 112, 101, 113
137, 111, 114, 138
104, 103, 115, 98
120, 112, 121, 127
125, 96, 128, 116
124, 121, 103, 131
143, 98, 111, 108
112, 116, 105, 113
109, 121, 113, 121
119, 116, 116, 122
105, 119, 125, 128
110, 120, 128, 122
119, 122, 118, 106
134, 133, 105, 129
112, 130, 119, 108
101, 129, 125, 128
127, 111, 115, 118
102, 109, 117, 136
111, 130, 125, 117
140, 135, 136, 148
139, 147, 157, 123
144, 143, 146, 147
135, 149, 161, 143
134, 141, 169, 132
158, 179, 169, 134
160, 163, 166, 170
166, 168, 189, 181
242, 184, 230, 247
284, 323, 381, 354
441, 435, 444, 446
365, 391, 330, 307
261, 224, 215, 199
189, 161, 173, 161
145, 174, 165, 186
189, 147, 137, 169
128, 165, 164, 137
161, 179, 185, 199
176, 217, 209, 197
214, 194, 171, 166
177, 192, 154, 153
171, 162, 170, 167
151, 150, 164, 168
148, 138, 165, 165
156, 165, 162, 165
166, 155, 153, 189
158, 153, 174, 179
165, 148, 185, 144
188, 174, 166, 170
168, 194, 177, 182
180, 177, 176, 168
179, 166, 191, 185
171, 169, 165, 175
179, 197, 171, 191
179, 167, 176, 183
180, 205, 171, 179
172, 170, 177, 201
175, 182, 178, 179
179, 198, 165, 180
194, 201, 201, 200
186, 199, 201, 197
214, 207, 212, 231
226, 203, 218, 204
212, 214, 224, 239
218, 214, 232, 248
246, 230, 203, 209
203, 240, 239, 253
230, 274, 236, 262
277, 278, 293, 267
312, 284, 348, 378
386, 419, 460, 533
598, 652, 708, 677
765, 855, 860, 887
928, 967, 1059, 1215
1493, 1965, 2572, 3665
5273, 8343, 13571, 20639.5
29278.1, 36142.4, 43567, 42352.9
41512.4, 36095.7, 29231.4, 21620.1
13962, 14615.7, 13168.2, 16997.2
19005.1, 20125.8, 22554, 21339.9
16950.5, 14055.4, 9512, 6341
4275, 2939, 1919, 1506
1126, 987, 798, 679
569, 571, 491, 488
419, 406, 415, 368
356, 333, 354, 298
341, 327, 296, 300
315, 290, 296, 277
268, 262, 273, 219
233, 218, 243, 227
239, 210, 228, 204
196, 191, 197, 212
184, 208, 197, 184
189, 168, 204, 182
161, 160, 184, 189
161, 159, 170, 174
175, 171, 193, 146
163, 171, 147, 144
161, 175, 138, 149
157, 157, 140, 164
150, 158, 142, 164
147, 152, 137, 139
148, 147, 149, 119
157, 149, 131, 137
149, 131, 135, 140
141, 163, 145, 150
160, 129, 148, 141
131, 153, 128, 142
161, 148, 141, 131
136, 155, 146, 136
160, 159, 147, 143
123, 141, 160, 177
152, 143, 145, 155
140, 128, 132, 128
150, 147, 140, 160
154, 144, 153, 129
145, 146, 142, 140
148, 118, 162, 127
138, 146, 135, 132
163, 136, 152, 143
153, 148, 155, 153
152, 159, 170, 168
147, 149, 162, 173
161, 171, 164, 170
185, 171, 174, 203
207, 184, 209, 227
218, 214, 257, 227
269, 264, 282, 340
312, 340, 379, 490
513, 532, 647, 819
927, 1142, 1339, 1561
1837, 2161, 2240, 2571
2707, 2982, 3208, 3368
3581, 3722, 3999, 4208
4520, 4737, 4829, 5202
5549, 5671, 5968, 6151
6111, 6091, 5920, 5564
5496, 5046, 4790, 4409
4097, 3830, 3390, 3254
3009, 2589, 2554, 2236
2006, 1778, 1606, 1376
1189, 1040, 815, 748
539, 459, 401, 362
332, 324, 340, 310
257, 294, 252, 274
235, 256, 216, 187
236, 224, 184, 205
184, 184, 171, 170
146, 168, 165, 151
143, 150, 133, 140
149, 132, 135, 134
119, 131, 139, 126
135, 117, 118, 92
136, 122, 143, 117
119, 129, 127, 110
110, 125, 120, 121
111, 104, 122, 133
120, 102, 116, 125
117, 118, 117, 125
125, 101, 98, 111
110, 122, 124, 111
111, 131, 108, 122
125, 111, 119, 112
96, 125, 115, 119
116, 108, 106, 110
98, 107, 126, 127
111, 110, 109, 110
115, 105, 107, 110
115, 117, 101, 140
110, 124, 104, 112
115, 106, 116, 108
110, 107, 120, 94
109, 127, 101, 110
114, 93, 118, 91
122, 92, 107, 112
115, 123, 107, 113
103, 106, 95, 114
103, 112, 98, 103
103, 111, 124, 111
112, 117, 98, 99
106, 84, 87, 103
103, 107, 122, 107
102, 103, 110, 92
113, 101, 107, 130
103, 100, 117, 91
100, 113, 116, 100
107, 107, 100, 85
105, 122, 100, 100
101, 99, 122, 110
116, 86, 128, 93
104, 121, 112, 97
102, 99, 93, 95
109, 112, 91, 96
120, 107, 104, 109
97, 116, 123, 90
97, 98, 95, 101
123, 89, 111, 119
99, 96, 111, 112
105, 102, 110, 101
107, 109, 107, 114
116, 110, 123, 93
107, 102, 89, 108
88, 106, 109, 96
98, 118, 103, 104
100, 103, 113, 104
110, 111, 93, 95
103, 111, 104, 96
109, 117, 112, 106
100, 117, 105, 103
115, 100, 116, 107
125, 118, 97, 115
126, 89, 108, 103
97, 89, 99, 98
108, 107, 116, 112
121, 100, 110, 112
106, 106, 98, 103
82, 110, 114, 108
104, 86, 117, 126
89, 112, 110, 96
106, 104, 105, 115
113, 114, 120, 110
96, 101, 95, 90
110, 92, 109, 105
88, 108, 94, 115
110, 101, 97, 99
93, 112, 128, 98
112, 101, 97, 97
103, 107, 109, 95
123, 100, 100, 112
101, 106, 106, 112
95, 103, 107, 106
102, 93, 124, 105
102, 98, 107, 107
101, 93, 107, 116
100, 115, 99, 108
91, 90, 109, 122
100, 101, 108, 111
89, 99, 110, 93
114, 96, 122, 91
113, 111, 117, 91
79, 117, 90, 87
115, 101, 96, 117
96, 102, 95, 100
115, 108, 97, 97
106, 94, 108, 135
100, 120, 83, 105
116, 95, 105, 116
117, 127, 97, 96
106, 110, 101, 105
95, 100, 118, 111
103, 102, 118, 106
114, 95, 111, 101
92, 78, 125, 109
117, 107, 118, 102
88, 111, 99, 108
102, 122, 88, 120
115, 103, 112, 93
85, 114, 117, 87
90, 90, 103, 105
112, 104, 105, 89
102, 112, 104, 113
124, 96, 102, 84
107, 116, 105, 96
104, 91, 102, 117
109, 101, 109, 118
104, 117, 98, 114
105, 79, 100, 120
97, 92, 107, 109
88, 104, 92, 88
116, 92, 105, 88
133, 124, 120, 105
117, 92, 100, 103
120, 110, 109, 116
109, 108, 119, 117
87, 108, 100, 109
94, 107, 116, 106
104, 98, 103, 112
112, 96, 91, 86
90, 98, 89, 109
112, 97, 94, 109
102, 112, 112, 122
124, 124, 105, 92
113, 105, 98, 116
108, 112, 100, 95
110, 126, 119, 127
112, 100, 106, 113
118, 107, 111, 111
104, 126, 107, 114
124, 93, 119, 95
111, 112, 107, 117
113, 116, 103, 108
100, 101, 124, 111
114, 75, 92, 98
103, 99, 99, 88
85, 103, 112, 113
92, 88, 107, 107
112, 99, 91, 115
98, 99, 102, 106
116, 102, 121, 112
111, 108, 96, 101
104, 95, 81, 78
96, 90, 114, 105
90, 110, 98, 88
103, 105, 102, 97
101, 97, 120, 90
109, 105, 114, 109
103, 89, 104, 110
100, 112, 115, 105
126, 118, 99, 106
114, 108, 90, 100
110, 82, 101, 109
117, 104, 120, 108
105, 91, 105, 93
119, 111, 109, 104
105, 98, 100, 105
103, 102, 89, 103
115, 119, 86, 111
104, 124, 105, 114
114, 105, 129, 91
94, 110, 115, 113
111, 100, 102, 116
100, 124, 89, 87
105, 89, 117, 98
108, 112, 122, 99
102, 100, 95, 116
97, 95, 95, 117
120, 108, 100, 97
112, 116, 99, 106
115, 85, 100, 96
118, 114, 116, 91
115, 105, 88, 109
121, 107, 105, 109
99, 91, 107, 96
98, 102, 110, 101
101, 113, 93, 98
119, 106, 96, 102
103, 106, 119, 108
119, 99, 96, 84
112, 108, 111, 112
105, 92, 125, 111
93, 104, 103, 127
124, 106, 125, 111
125, 108, 106, 105
109, 108, 93, 97
114, 119, 109, 112
111, 104, 85, 92
106, 130, 107, 99
102, 92, 101, 106
92, 103, 100, 121
115, 105, 102, 100
104, 100, 101, 101
112, 112, 116, 113
107, 129, 133, 143
114, 120, 134, 125
122, 128, 133, 134
125, 142, 143, 139
148, 163, 158, 169
147, 153, 157, 157
155, 166, 159, 124
127, 149, 140, 143
134, 150, 133, 141
134, 123, 119, 137
149, 111, 120, 123
118, 136, 115, 118
116, 103, 86, 110
116, 115, 114, 101
114, 101, 102, 112
98, 101, 113, 99
104, 116, 115, 123
123, 112, 119, 107
130, 96, 107, 116
114, 141, 129, 112
119, 109, 110, 117
115, 87, 89, 111
100, 114, 101, 98
110, 101, 109, 103
114, 110, 101, 115
100, 107, 108, 101
98, 109, 106, 73
139, 94, 111, 119
98, 109, 97, 120
86, 109, 119, 114
100, 118, 83, 117
122, 90, 95, 86
119, 103, 86, 107
106, 132, 98, 113
94, 94, 120, 101
108, 104, 104, 116
117, 105, 111, 121
98, 109, 88, 114
93, 99, 88, 111
99, 109, 108, 119
93, 109, 104, 107
112, 129, 107, 103
104, 111, 95, 99
96, 112, 133, 101
122, 96, 90, 100
97, 104, 91, 102
126, 136, 105, 105
106, 114, 126, 93
120, 88, 97, 102
116, 83, 97, 104
110, 92, 93, 113
118, 111, 117, 99
102, 114, 105, 92
101, 107, 102, 123
109, 103, 111, 101
100, 111, 105, 111
94, 111, 97, 104
107, 101, 96, 118
92, 96, 122, 105
108, 97, 98, 114
116, 81, 125, 96
102, 110, 110, 107
107, 112, 117, 121
98, 111, 108, 110
110, 116, 102, 111
92, 108, 110, 125
107, 107, 104, 114
110, 111, 110, 119
95, 99, 107, 113
111, 114, 98, 101
109, 90, 106, 121
103, 103, 83, 103
106, 106, 92, 105
106, 83, 113, 109
93, 92, 88, 96
89, 95, 101, 109
130, 112, 121, 93
104, 109, 90, 110
132, 89, 99, 109
96, 97, 103, 119
114, 103, 111, 95
97, 117, 101, 89
113, 108, 111, 109
88, 97, 117, 102
102, 133, 97, 101
103, 113, 101, 111
111, 109, 117, 112
114, 123, 111, 114
112, 108, 109, 90
92, 100, 113, 103
114, 123, 107, 110
110, 93, 89, 90
100, 117, 109, 101
121, 93, 103, 98
102, 115, 107, 101
107, 99, 108, 100
92, 126, 102, 100
127, 101, 102, 100
105, 107, 104, 108
94, 112, 101, 98
116, 115, 112, 104
94, 113, 109, 119
104, 108, 94, 106
122, 117, 107, 110
112, 113, 108, 102
98, 80, 93, 109
103, 106, 96, 105
99, 110, 94, 107
92, 122, 92, 117
107, 111, 102, 106
111, 103, 101, 87
112, 97, 108, 107
98, 105, 112, 100
102, 127, 127, 108
108, 101, 115, 107
115, 93, 129, 100
110, 106, 104, 120
92, 108, 121, 97
106, 99, 116, 95
111, 100, 104, 116
114, 106, 125, 127
98, 116, 96, 93
94, 97, 101, 96
108, 105, 103, 124
114, 109, 99, 112
110, 101, 105, 122
100, 112, 124, 121
118, 128, 95, 105
98, 96, 89, 132
119, 103, 108, 107
104, 95, 117, 95
109, 97, 112, 97
93, 107, 96, 115
113, 110, 110, 114
110, 115, 113, 98
125, 96, 100, 108
120, 97, 112, 88
95, 78, 118, 86
105, 107, 121, 79
110, 92, 102, 112
128, 100, 84, 105
96, 120, 112, 86
116, 107, 108, 125
84, 105, 106, 110
111, 94, 115, 97
81, 91, 111, 95
122, 107, 95, 103
106, 91, 109, 109
97, 97, 119, 106
100, 111, 100, 98
113, 122, 105, 106
104, 121, 127, 110
108, 109, 98, 107
106, 114, 114, 119
91, 100, 96, 104
117, 107, 99, 104
110, 103, 94, 113
98, 112, 87, 118
94, 99, 117, 121
120, 98, 97, 101
88, 92, 103, 104
106, 111, 109, 116
108, 117, 98, 107
104, 80, 113, 114
118, 101, 114, 109
111, 106, 115, 112
112, 105, 103, 101
119, 117, 99, 110
94, 108, 86, 120
89, 114, 101, 86
100, 92, 100, 107
109, 119, 111, 103
111, 105, 128, 106
123, 111, 100, 120
116, 108, 95, 113
100, 111, 107, 82
95, 87, 116, 108
102, 116, 103, 99
115, 109, 95, 108
113, 103, 100, 122
105, 105, 111, 114
86, 114, 103, 92
109, 130, 113, 117
108, 109, 105, 111
106, 102, 98, 110
110, 107, 106, 85
105, 95, 106, 86
113, 108, 107, 113
123, 115, 113, 99
108, 112, 107, 124
84, 89, 130, 108
121, 108, 101, 82
95, 109, 96, 110
98, 94, 87, 118
111, 99, 88, 103
124, 88, 120, 117
106, 107, 123, 97
100, 108, 109, 115
101, 91, 111, 100
111, 106, 101, 114
113, 97, 105, 122
110, 124, 109, 102
111, 101, 89, 109
109, 113, 93, 100
107, 113, 117, 118
103, 104, 104, 107
108, 109, 94, 109
93, 93, 112, 87
124, 109, 114, 102
97, 107, 117, 114
127, 112, 106, 122
114, 112, 114, 91
108, 106, 106, 109
107, 99, 101, 108
106, 119, 97, 104
113, 113, 102, 113
120, 113, 120, 103
110, 120, 105, 119
113, 105, 115, 106
105, 94, 104, 124
106, 106, 90, 101
116, 113, 106, 139
112, 117, 121, 112
98, 118, 85, 102
113, 91, 100, 125
120, 101, 88, 118
95, 110, 104, 95
89, 100, 104, 105
106, 112, 92, 114
95, 110, 116, 117
118, 105, 102, 104
105, 107, 94, 113
103, 110, 103, 97
116, 112, 107, 110
108, 109, 94, 109
116, 118, 96, 121
124, 111, 119, 101
106, 112, 81, 101
106, 114, 103, 117
115, 104, 97, 106
94, 106, 106, 107
107, 93, 114, 100
105, 106, 128, 101
99, 103, 97, 110
120, 117, 94, 106
122, 108, 104, 115
127, 103, 113, 91
121, 109, 106, 101
111, 121, 116, 97
112, 101, 97, 99
98, 114, 104, 101
93, 99, 109, 98
114, 95, 122, 116
92, 95, 108, 103
112, 98, 103, 93
99, 112, 98, 99
101, 115, 129, 91
92, 102, 104, 112
115, 114, 84, 117
95, 121, 104, 95
116, 96, 100, 89
111, 95, 107, 110
114, 121, 107, 113
125, 91, 130, 118
102, 97, 100, 110
107, 117, 103, 99
96, 129, 120, 101
133, 96, 104, 111
111, 111, 117, 110
125, 116, 104, 112
107, 105, 111, 113
94, 105, 110, 102
119, 94, 129, 95
106, 118, 100, 109
95, 112, 120, 97
115, 84, 109, 107
98, 114, 108, 92
106, 99, 128, 124
125, 116, 108, 106
106, 109, 99, 97
118, 113, 111, 111
99, 118, 117, 112
111, 102, 98, 106
101, 110, 107, 118
109, 113, 120, 97
127, 105, 102, 113
109, 106, 105, 114
121, 92, 107, 135
126, 133, 110, 114
115, 118, 111, 130
137, 123, 140, 142
118, 145, 135, 121
124, 130, 125, 117
117, 135, 127, 131
132, 130, 143, 150
148, 144, 160, 153
135, 169, 111, 133
139, 137, 134, 152
138, 124, 168, 162
160, 161, 201, 204
197, 213, 194, 176
170, 162, 178, 188
175, 193, 208, 239
276, 288, 333, 398
406, 471, 507, 501
605, 564, 616, 552
593, 565, 556, 530
493, 449, 433, 354
336, 309, 264, 255
199, 225, 230, 148
180, 170, 145, 155
170, 149, 125, 137
148, 132, 134, 105
123, 121, 125, 115
122, 130, 141, 124
124, 135, 143, 116
115, 119, 141, 118
101, 121, 124, 114
122, 110, 139, 118
114, 125, 114, 119
119, 115, 114, 133
109, 111, 131, 122
125, 107, 121, 131
112, 122, 134, 141
117, 121, 100, 129
108, 128, 125, 122
121, 119, 114, 113
114, 104, 124, 126
114, 112, 109, 114
122, 114, 126, 134
106, 108, 117, 92
99, 88, 97, 127
101, 101, 117, 133
121, 125, 108, 137
128, 108, 122, 103
135, 121, 113, 130
136, 114, 116, 100
128, 123, 133, 118
114, 118, 123, 129
121, 120, 127, 121
104, 113, 121, 123
116, 131, 130, 114
124, 149, 104, 134
111, 122, 130, 111
98, 111, 108, 109
122, 140, 112, 112
126, 120, 133, 108
119, 125, 109, 104
123, 116, 116, 120
117, 140, 133, 107
132, 140, 105, 121
129, 112, 122, 109
112, 133, 106, 108
120, 107, 140, 125
104, 97, 122, 133
124, 128, 115, 107
116, 116, 139, 128
119, 123, 126, 109
110, 110, 128, 131
116, 124, 142, 122
96, 103, 140, 137
129, 126, 134, 145
136, 137, 119, 105
110, 135, 129, 128
121, 116, 114, 120
125, 126, 121, 122
108, 110, 117, 120
132, 109, 128, 131
122, 121, 120, 129
141, 120, 114, 115
100, 122, 141, 118
117, 126, 117, 122
117, 131, 131, 126
129, 142, 121, 113
113, 117, 132, 135
103, 118, 120, 130
141, 134, 135, 153
140, 144, 140, 149
127, 141, 125, 134
112, 117, 140, 153
112, 129, 140, 134
127, 115, 143, 116
138, 121, 116, 137
129, 145, 122, 142
123, 134, 130, 133
123, 125, 143, 131
125, 148, 133, 126
137, 124, 139, 135
115, 135, 135, 139
161, 124, 122, 143
136, 135, 148, 139
132, 135, 131, 127
133, 149, 130, 142
147, 135, 131, 134
174, 145, 154, 140
142, 138, 142, 137
128, 135, 134, 133
132, 151, 149, 141
140, 170, 148, 150
143, 148, 158, 141
171, 152, 170, 158
137, 127, 155, 161
134, 173, 147, 151
159, 149, 180, 178
160, 140, 175, 181
177, 147, 151, 151
163, 155, 182, 154
172, 185, 174, 194
172, 193, 190, 202
202, 177, 192, 182
219, 214, 219, 235
203, 209, 242, 263
263, 296, 264, 342
327, 401, 414, 449
494, 550, 669, 690
759, 848, 903, 970
1059, 1107, 1148, 1188
1216, 1130, 1131, 1118
1019, 1031, 847, 806
725, 691, 622, 600
537, 472, 423, 388
347, 366, 333, 306
322, 260, 288, 245
277, 253, 245, 255
262, 249, 260, 248
281, 238, 295, 246
213, 240, 263, 231
206, 263, 266, 247
266, 276, 288, 269
320, 281, 306, 330
350, 351, 372, 379
351, 411, 401, 393
432, 405, 397, 365
412, 377, 382, 372
333, 318, 280, 299
286, 292, 341, 285
299, 262, 259, 253
268, 264, 259, 281
268, 259, 228, 250
258, 234, 256, 223
253, 253, 258, 257
243, 219, 254, 297
263, 259, 284, 258
261, 286, 257, 297
263, 289, 278, 259
264, 254, 300, 255
288, 254, 261, 295
279, 278, 284, 263
309, 266, 282, 288
285, 282, 293, 271
296, 268, 308, 317
296, 261, 302, 305
271, 295, 329, 307
310, 306, 290, 336
292, 328, 319, 297
314, 305, 317, 334
322, 294, 305, 326
324, 307, 334, 307
294, 305, 316, 318
318, 298, 306, 317
327, 349, 334, 316
346, 332, 323, 324
343, 337, 377, 337
354, 335, 341, 341
339, 325, 306, 398
358, 352, 356, 384
371, 331, 351, 352
396, 358, 375, 393
348, 343, 356, 382
379, 342, 378, 399
394, 384, 414, 402
361, 392, 386, 407
436, 377, 376, 371
413, 435, 395, 442
403, 419, 375, 399
390, 429, 408, 438
457, 434, 411, 425
398, 435, 448, 430
472, 436, 430, 416
456, 455, 477, 437
452, 446, 459, 478
466, 484, 437, 516
486, 468, 485, 499
509, 495, 488, 493
499, 502, 542, 541
503, 547, 518, 532
517, 593, 598, 548
573, 624, 669, 599
592, 628, 693, 615
692, 679, 734, 721
769, 718, 861, 797
877, 894, 948, 950
1028, 1100, 1177, 1240
1322, 1427, 1517, 1652
1727, 1899, 1943, 2052
2099, 2298, 2294, 2397
2435, 2512, 2657, 2598
2635, 2749, 2749, 2856
3013, 3104, 3255, 3521
3929, 4481, 5055, 5815
6822, 7990, 10149, 12310
14796, 19027, 23301.1, 29698.4
32453.4, 43800.5, 50104.4, 63879.6
75646.9, 88815, 103618, 118093
134297, 143075, 145830, 151807
141394, 138686, 127059, 114544
99881.9, 91009.7, 75086.5, 66261.1
60844.4, 54447.1, 49123.8, 46322
46648.9, 50477.9, 52159, 57575.7
61311.3, 64066.4, 67148.3, 70463.7
68549.1, 68409.1, 66914.8, 60704.3
55381, 48516.7, 38430.5, 36235.8
30819.1, 25682.6, 19472.1, 14802.5
14895.9, 11477, 9096, 7515
6306, 5200, 4524, 4021
3517, 3069, 2627, 2543
2306, 2006, 1935, 1841
1694, 1686, 1451, 1477
1515, 1323, 1330, 1207
1114, 1090, 1054, 979
900, 996, 1001, 871
895, 749, 858, 805
798, 761, 764, 740
734, 682, 666, 662
640, 635, 582, 593
574, 587, 557, 572
536, 521, 568, 513
490, 505, 475, 487
479, 419, 474, 466
459, 473, 424, 451
460, 459, 431, 461
410, 411, 422, 409
408, 421, 428, 391
398, 413, 372, 390
373, 383, 433, 360
351, 336, 380, 336
336, 340, 345, 343
361, 283, 335, 346
294, 331, 298, 308
327, 310, 317, 316
318, 294, 296, 300
286, 299, 268, 289
281, 259, 289, 273
270, 272, 277, 287
255, 260, 249, 260
261, 254, 242, 272
281, 265, 264, 236
249, 265, 239, 229
253, 242, 257, 255
235, 247, 246, 241
237, 223, 218, 253
243, 200, 244, 227
228, 218, 231, 215
226, 235, 252, 245
227, 231, 224, 235
237, 246, 224, 244
231, 234, 224, 202
227, 252, 256, 261
257, 245, 279, 257
273, 263, 256, 243
304, 329, 339, 318
347, 339, 369, 385
425, 487, 561, 574
692, 768, 871, 957
1048, 1135, 1235, 1224
1289, 1339, 1346, 1401
1436, 1550, 1592, 1581
1695, 1822, 1903, 1980
2073, 2075, 1917, 1876
1860, 1844, 1784, 1783
1675, 1562, 1370, 1264
1191, 1118, 1041, 942
966, 887, 962, 1048
946, 971, 1001, 981
895, 859, 916, 852
775, 747, 661, 603
534, 427, 422, 354
295, 242, 268, 238
201, 206, 205, 204
226, 197, 171, 172
183, 188, 174, 182
163, 188, 189, 174
155, 190, 162, 191
151, 154, 159, 162
147, 153, 154, 146
168, 149, 138, 131
142, 171, 157, 159
157, 162, 144, 155
129, 150, 160, 136
145, 133, 137, 156
152, 147, 154, 157
122, 131, 123, 146
131, 145, 144, 135
121, 139, 146, 130
135, 115, 140, 128
124, 113, 148, 138
134, 151, 125, 136
128, 127, 140, 130
131, 124, 138, 147
123, 139, 138, 116
120, 124, 124, 138
111, 134, 130, 112
116, 132, 124, 138
137, 130, 140, 122
129, 132, 143, 116
121, 138, 123, 146
132, 119, 110, 127
135, 136, 111, 111
130, 128, 143, 124
119, 128, 137, 129
138, 154, 124, 99
129, 112, 125, 126
118, 144, 142, 127
118, 140, 151, 112
134, 120, 122, 111
122, 134, 128, 114
110, 124, 123, 135
133, 119, 110, 114
131, 147, 125, 109
138, 121, 131, 126
132, 116, 132, 134
133, 149, 122, 131
117, 133, 114, 133
119, 132, 125, 128
155, 118, 151, 135
124, 100, 118, 118
122, 123, 114, 125
123, 122, 130, 146
130, 126, 132, 114
126, 109, 132, 113
110, 131, 129, 131
116, 106, 99, 111
127, 113, 142, 127
102, 129, 130, 117
122, 107, 126, 125
116, 131, 102, 118
121, 130, 107, 130
127, 119, 123, 125
128, 142, 112, 130
107, 119, 123, 111
139, 129, 132, 105
135, 117, 125, 128
130, 111, 132, 103
104, 116, 93, 117
114, 111, 117, 127
109, 105, 132, 137
128, 122, 125, 138
108, 126, 110, 98
138, 135, 114, 96
119, 115, 119, 97
105, 123, 124, 117
104, 102, 116, 126
121, 89, 107, 116
108, 122, 121, 105
123, 104, 120, 123
105, 115, 125, 122
111, 115, 128, 116
99, 102, 120, 138
119, 105, 123, 138
111, 119, 106, 110
119, 112, 121, 116
120, 101, 122, 108
107, 121, 93, 119
116, 128, 133, 139
107, 136, 124, 126
129, 124, 137, 112
121, 112, 136, 121
105, 117, 132, 118
119, 136, 132, 118
137, 126, 110, 125
112, 130, 112, 124
127, 116, 104, 120
108, 127, 102, 145
102, 136, 127, 113
118, 122, 122, 119
128, 116, 119, 102
126, 137, 110, 136
139, 120, 131, 131
144, 126, 122, 120
126, 151, 178, 184
172, 171, 206, 215
260
*END

*EOF
