*TYPE		=  Raw
*CLASS		=  ASCII CLASS
*SAMPLE		=   
*COMMENT	=   
*FNAME		=  1-3_2-Theta_Omega.asc
*DATE		=  11-Dec-25 15:12

*GROUP_COUNT	=  1
*GONIO		=  SmartLab(In-plane), 0.000000
*ATTACHMENT	=  Z-Phi Stage
*ASC		=  0, 0, 0.000000, 0.000000
*I_MONOCHRO	=  Soller_slit_5.0deg, 0.000000
*FILTER		=  None
*C_MONOCHRO	=  None, 0.000000
*SLIT_NAME	=  0, Incident slit
*SLIT_NAME	=  1, Receiving slit # 1
*SLIT_NAME	=  2, Receiving slit # 2
*COUNTER	=  SC-70, 0
*POS_FORMAT	=  0
*SCAN_AXIS	=  2Theta/Omega
*MEAS_MODE	=  Continuous Scanning
*TARGET		=  29
*XRAY_CHAR	=  K-ALPHA
*WAVE_LENGTH1	=  1.54059
*WAVE_LENGTH2	=  1.54441
*THICKNESS	=  0, 0.000000
*MU		=  0, 0.000000
*SCAN_MODE	=  2Theta/Omega
*SPEED_DIM	=  sec./step
*XUNIT		=  deg.
*YUNIT		=  counts
*SCALE_MODE	=  1
*REP_COUNT	=  0
*SE_COUNT	=  0
*STD_MATERIAL	=  Unknown, Unknown, 0.000000, 0.000000, 0.000000, 0.000000, 0.000000, 0.000000
*LATT_CONS	=  0, Unknown, Unknown, 0.000000, 0.000000, 0.000000, 0.000000, 0.000000, 0.000000
*SEC_COUNT	=  1
*TSPEC_SIZE	=  0
*EXTRA_SIZE	=  0
*MEMO		=   

*BEGIN
*GROUP		=  0
*START		=  20
*STOP		=  80
*STEP		=  0.01
*OFFSET		=  0.000000
*SPEED		=  0.05
*SLIT_SPEC	=  0, 1.000mm, 1, 0.000000
*SLIT_SPEC	=  1, 1.000mm, 1, 0.000000
*SLIT_SPEC	=  2, 1.000mm, 1, 0.000000
*KV		=  40
*MA		=  100
*LOW		=  0.000000
*HIGH		=  0.000000
*CTEMPER	=  0, 0.000000
*CTEMPER	=  1, 0.000000
*CTEMPER	=  2, 0.000000
*PAREX		=  0, 0.000000
*PAREX		=  1, 0.000000
*PAREX		=  2, 0.000000
*PAREX		=  3, 0.000000
*PAREX		=  4, 0.000000
*PAREX		=  5, 0.000000
*PAREX		=  6, 0.000000
*PAREX		=  7, 0.000000
*PAREX		=  8, 0.000000
*PAREX		=  9, 0.000000
*PAREX		=  10, 0.000000
*PAREX		=  11, 0.000000
*PAREX		=  12, 0.000000
*PAREX		=  13, 0.000000
*PAREX		=  14, 0.000000
*PAREX		=  15, 0.000000
*FULL_SCALE	=  109728
*INDEX		=  0, 0, 0
*COUNT		=  6001
88, 71, 98, 71
87, 87, 81, 76
77, 90, 101, 75
89, 76, 82, 91
87, 82, 93, 71
101, 79, 87, 85
81, 83, 80, 79
80, 77, 90, 105
88, 96, 89, 94
94, 98, 83, 84
96, 87, 78, 91
85, 92, 78, 89
88, 82, 86, 101
102, 89, 81, 89
88, 108, 95, 106
80, 85, 65, 89
70, 82, 87, 76
97, 93, 80, 75
73, 72, 89, 75
88, 90, 89, 83
96, 103, 79, 81
89, 92, 78, 72
104, 93, 89, 75
86, 94, 88, 80
61, 98, 72, 86
88, 89, 92, 83
83, 86, 94, 103
98, 93, 95, 91
76, 80, 74, 74
101, 99, 100, 69
102, 97, 85, 99
87, 87, 90, 86
99, 94, 106, 101
85, 62, 73, 94
76, 77, 81, 93
71, 90, 88, 80
101, 82, 82, 94
83, 82, 79, 105
80, 89, 80, 100
87, 86, 93, 85
95, 85, 74, 88
103, 83, 97, 82
95, 85, 83, 86
92, 84, 69, 100
76, 76, 84, 76
96, 82, 91, 80
87, 99, 89, 93
94, 111, 82, 90
100, 98, 84, 97
77, 100, 93, 79
80, 97, 93, 86
76, 94, 104, 81
79, 85, 88, 101
75, 78, 86, 86
97, 89, 79, 89
99, 79, 86, 84
79, 86, 77, 92
99, 84, 67, 87
97, 86, 91, 87
89, 86, 82, 87
74, 88, 97, 89
101, 80, 76, 84
86, 92, 93, 78
78, 96, 72, 83
77, 84, 88, 105
85, 94, 95, 84
82, 89, 78, 85
72, 102, 81, 91
89, 84, 92, 100
77, 97, 85, 95
86, 86, 98, 103
100, 95, 92, 76
77, 93, 99, 86
86, 92, 81, 86
89, 90, 103, 78
85, 84, 91, 89
93, 82, 112, 81
83, 96, 94, 89
97, 89, 100, 90
66, 99, 75, 79
91, 78, 101, 107
91, 71, 105, 82
76, 88, 83, 88
85, 84, 74, 79
83, 99, 102, 82
104, 80, 83, 86
87, 89, 88, 97
96, 83, 81, 72
94, 63, 94, 78
85, 83, 102, 97
106, 83, 81, 64
124, 89, 76, 83
87, 91, 88, 91
80, 87, 114, 89
82, 102, 92, 87
97, 88, 97, 73
94, 85, 79, 87
86, 92, 111, 79
80, 106, 94, 81
77, 83, 87, 97
116, 81, 99, 88
95, 81, 81, 99
88, 71, 93, 84
92, 86, 97, 93
67, 88, 97, 75
95, 86, 70, 75
84, 102, 93, 95
92, 97, 73, 84
90, 85, 109, 104
96, 75, 95, 87
107, 80, 85, 102
86, 92, 92, 83
67, 96, 84, 93
94, 76, 88, 96
84, 97, 93, 103
100, 90, 97, 99
85, 89, 97, 70
98, 102, 95, 85
77, 89, 96, 91
94, 89, 75, 79
85, 92, 84, 92
94, 97, 84, 95
92, 92, 93, 83
81, 102, 106, 88
88, 82, 93, 82
99, 74, 76, 110
94, 85, 91, 102
86, 103, 79, 69
86, 91, 86, 96
90, 90, 103, 75
87, 108, 95, 92
87, 83, 88, 76
100, 79, 83, 96
91, 87, 99, 80
76, 83, 83, 109
105, 70, 79, 83
97, 114, 102, 93
84, 95, 77, 91
82, 93, 94, 84
86, 89, 75, 82
84, 75, 88, 100
93, 98, 79, 78
70, 99, 81, 94
89, 89, 85, 107
99, 105, 83, 101
89, 89, 100, 105
83, 103, 99, 73
101, 102, 101, 84
87, 87, 99, 90
79, 101, 91, 82
99, 64, 79, 88
94, 98, 113, 78
97, 82, 79, 84
83, 87, 80, 88
86, 99, 92, 93
82, 95, 92, 98
81, 93, 99, 104
102, 94, 81, 97
87, 90, 99, 83
98, 104, 100, 89
81, 121, 89, 91
93, 87, 93, 79
97, 83, 106, 94
99, 81, 107, 80
101, 104, 78, 83
70, 88, 98, 114
98, 92, 97, 96
85, 79, 96, 77
93, 93, 104, 94
76, 86, 84, 79
87, 82, 86, 87
84, 95, 103, 86
101, 91, 84, 77
90, 111, 80, 84
87, 93, 89, 80
115, 86, 82, 86
90, 80, 99, 90
89, 108, 95, 105
90, 108, 80, 74
89, 82, 97, 101
103, 95, 87, 93
99, 101, 97, 91
85, 96, 95, 85
102, 97, 103, 82
106, 91, 88, 83
86, 83, 97, 97
103, 115, 81, 91
89, 99, 87, 84
84, 78, 81, 100
97, 80, 101, 96
89, 80, 105, 104
75, 82, 84, 87
87, 91, 74, 81
100, 82, 82, 82
97, 101, 71, 101
128, 82, 102, 97
85, 88, 81, 100
90, 103, 102, 71
88, 102, 106, 103
97, 95, 103, 91
94, 92, 91, 100
83, 100, 99, 91
95, 92, 95, 80
84, 94, 105, 87
76, 80, 81, 93
89, 96, 98, 81
107, 91, 76, 109
103, 99, 104, 66
72, 107, 93, 92
92, 95, 96, 98
103, 87, 96, 83
100, 80, 77, 85
94, 87, 106, 108
83, 94, 97, 86
93, 86, 78, 94
97, 87, 88, 83
77, 88, 79, 87
99, 95, 90, 84
93, 88, 86, 87
77, 99, 78, 90
93, 94, 103, 105
92, 99, 100, 110
90, 92, 95, 84
97, 90, 85, 95
93, 94, 74, 79
94, 96, 108, 100
82, 98, 99, 84
92, 89, 75, 83
81, 85, 86, 86
110, 91, 95, 88
78, 74, 101, 83
106, 92, 98, 90
106, 107, 98, 89
86, 87, 86, 96
98, 112, 89, 78
91, 83, 106, 107
96, 93, 91, 96
101, 81, 95, 88
86, 98, 105, 97
84, 115, 98, 96
99, 89, 83, 87
73, 81, 85, 95
99, 97, 97, 112
104, 113, 76, 90
79, 86, 93, 90
102, 87, 98, 93
123, 89, 84, 77
97, 82, 88, 82
101, 97, 86, 86
110, 89, 77, 96
96, 90, 91, 94
105, 105, 89, 90
93, 81, 108, 84
93, 101, 98, 84
113, 77, 87, 89
87, 101, 90, 93
78, 85, 106, 100
113, 98, 102, 94
99, 107, 90, 80
98, 104, 103, 105
80, 101, 131, 121
92, 92, 92, 112
115, 101, 96, 81
107, 79, 92, 87
80, 105, 102, 104
83, 85, 83, 98
95, 97, 86, 92
91, 98, 82, 99
104, 95, 85, 83
97, 79, 106, 93
97, 94, 113, 86
84, 112, 88, 90
81, 98, 82, 101
93, 89, 86, 94
82, 101, 100, 90
87, 98, 89, 102
110, 97, 105, 111
89, 93, 81, 93
81, 93, 97, 94
95, 87, 89, 83
80, 85, 93, 87
97, 102, 106, 83
96, 96, 92, 105
79, 91, 101, 101
99, 103, 105, 99
97, 85, 88, 86
96, 89, 80, 86
95, 105, 82, 74
90, 103, 78, 96
86, 115, 82, 114
92, 89, 88, 101
92, 106, 102, 79
110, 100, 98, 102
96, 81, 109, 103
97, 92, 84, 101
93, 94, 105, 81
80, 87, 98, 105
99, 85, 89, 93
100, 105, 82, 116
84, 108, 116, 85
91, 89, 110, 94
108, 92, 118, 112
94, 81, 91, 96
101, 104, 92, 111
105, 108, 82, 102
100, 95, 88, 88
90, 104, 100, 107
93, 102, 95, 74
102, 110, 96, 107
91, 99, 99, 105
103, 80, 109, 82
83, 96, 81, 73
91, 111, 95, 106
83, 82, 102, 104
87, 80, 96, 104
91, 91, 102, 102
103, 118, 80, 102
73, 86, 97, 95
103, 100, 106, 97
101, 96, 102, 89
89, 90, 104, 82
110, 85, 96, 96
73, 98, 89, 111
119, 98, 96, 82
100, 74, 85, 91
96, 95, 109, 117
104, 104, 96, 93
110, 97, 78, 94
93, 103, 85, 90
80, 92, 88, 94
102, 106, 98, 97
90, 118, 102, 91
99, 92, 82, 111
92, 90, 106, 103
99, 87, 90, 98
86, 97, 90, 113
87, 97, 82, 95
89, 111, 100, 104
95, 95, 95, 93
94, 106, 95, 93
95, 97, 110, 97
97, 91, 100, 111
76, 84, 102, 95
82, 103, 101, 86
88, 90, 92, 99
108, 84, 95, 111
98, 84, 99, 97
112, 109, 97, 115
88, 95, 92, 94
80, 87, 100, 83
92, 100, 101, 91
90, 110, 100, 98
89, 84, 101, 124
104, 100, 104, 77
96, 91, 115, 105
91, 104, 105, 91
92, 102, 105, 91
108, 90, 100, 97
82, 114, 100, 102
94, 100, 105, 111
98, 99, 79, 77
100, 91, 82, 109
109, 88, 96, 101
86, 88, 102, 93
82, 101, 96, 98
96, 89, 106, 96
105, 101, 112, 92
83, 82, 102, 99
107, 90, 103, 89
92, 92, 114, 90
101, 106, 110, 101
97, 102, 100, 103
108, 98, 94, 88
87, 94, 111, 115
132, 98, 104, 97
98, 105, 105, 110
117, 104, 94, 89
101, 103, 110, 92
109, 93, 87, 86
91, 93, 97, 101
85, 94, 107, 108
99, 100, 93, 83
106, 92, 100, 88
133, 102, 89, 93
94, 95, 109, 96
93, 108, 104, 112
105, 102, 85, 98
103, 102, 92, 105
109, 89, 106, 109
104, 104, 98, 108
108, 98, 92, 105
117, 119, 99, 96
92, 86, 106, 103
99, 109, 101, 116
89, 100, 106, 96
91, 110, 98, 90
94, 100, 114, 92
95, 104, 120, 105
102, 97, 85, 94
86, 103, 105, 95
110, 103, 114, 99
92, 99, 94, 102
103, 98, 93, 114
98, 109, 88, 105
99, 93, 99, 106
102, 101, 110, 90
103, 95, 105, 94
108, 103, 113, 102
100, 101, 105, 100
92, 108, 90, 93
105, 99, 88, 97
93, 87, 103, 112
98, 105, 98, 95
102, 113, 98, 110
112, 104, 99, 106
94, 119, 89, 86
93, 100, 84, 110
90, 90, 100, 89
83, 114, 97, 99
102, 105, 96, 110
112, 117, 108, 97
95, 93, 94, 103
97, 85, 97, 100
106, 110, 107, 105
76, 82, 106, 117
93, 95, 110, 95
92, 107, 91, 92
96, 91, 99, 88
102, 104, 94, 90
89, 114, 102, 98
99, 103, 88, 99
109, 105, 98, 103
86, 110, 104, 100
108, 109, 105, 118
103, 103, 115, 104
94, 106, 108, 101
110, 87, 88, 99
82, 107, 91, 97
93, 103, 100, 90
103, 93, 96, 84
99, 107, 92, 84
97, 111, 106, 114
108, 113, 116, 99
80, 114, 102, 105
104, 93, 97, 108
102, 109, 96, 99
110, 95, 99, 114
106, 101, 113, 98
101, 101, 85, 93
119, 94, 90, 90
90, 107, 102, 95
97, 102, 100, 107
79, 100, 97, 94
89, 105, 97, 118
86, 126, 101, 97
110, 94, 100, 107
106, 90, 112, 105
103, 76, 112, 87
92, 80, 108, 99
103, 114, 92, 104
109, 107, 103, 108
106, 101, 105, 93
105, 101, 97, 115
110, 115, 101, 87
96, 111, 92, 105
111, 94, 101, 104
89, 91, 93, 109
97, 97, 95, 85
114, 115, 96, 100
107, 93, 107, 93
106, 105, 113, 87
104, 100, 87, 104
87, 100, 99, 77
96, 114, 99, 105
95, 99, 103, 92
109, 103, 99, 103
96, 90, 98, 98
120, 95, 107, 102
100, 97, 88, 101
105, 107, 104, 94
104, 82, 108, 115
97, 96, 90, 102
96, 105, 105, 97
118, 99, 93, 89
94, 99, 97, 105
109, 97, 114, 103
98, 99, 110, 111
82, 124, 95, 108
111, 114, 126, 110
105, 115, 124, 114
120, 114, 123, 121
125, 140, 130, 96
122, 115, 127, 103
129, 110, 132, 112
107, 123, 88, 117
114, 103, 111, 110
109, 101, 119, 119
96, 104, 90, 105
111, 108, 109, 99
109, 91, 121, 106
95, 124, 106, 84
98, 117, 107, 104
92, 109, 104, 112
99, 110, 91, 96
112, 93, 100, 100
95, 99, 100, 76
95, 100, 103, 103
90, 106, 97, 103
99, 93, 95, 99
110, 101, 90, 90
103, 92, 102, 112
98, 100, 90, 99
120, 97, 104, 107
107, 91, 112, 114
122, 104, 93, 112
92, 105, 94, 94
99, 89, 116, 97
107, 111, 111, 98
124, 102, 110, 91
116, 101, 114, 95
117, 97, 97, 104
109, 107, 131, 114
108, 103, 96, 98
102, 117, 90, 85
106, 115, 97, 94
108, 108, 112, 121
96, 92, 111, 112
83, 112, 100, 106
113, 89, 102, 113
86, 101, 86, 100
92, 89, 102, 97
99, 114, 97, 116
92, 119, 99, 121
91, 119, 134, 98
106, 102, 119, 104
101, 92, 97, 127
78, 119, 107, 110
97, 131, 116, 106
95, 104, 120, 106
96, 120, 124, 131
111, 91, 122, 99
118, 91, 112, 119
108, 105, 118, 129
111, 112, 107, 127
98, 105, 104, 109
123, 118, 108, 114
103, 118, 128, 128
133, 141, 144, 118
117, 140, 148, 135
135, 126, 140, 118
120, 116, 127, 124
133, 120, 137, 127
130, 115, 139, 149
165, 138, 142, 168
150, 168, 155, 168
166, 142, 126, 161
145, 134, 148, 150
134, 117, 125, 138
129, 115, 122, 143
122, 114, 107, 135
136, 125, 122, 119
134, 125, 125, 106
141, 118, 110, 123
128, 139, 136, 116
123, 97, 121, 121
108, 124, 134, 133
129, 133, 118, 131
133, 139, 129, 94
115, 127, 117, 116
128, 121, 132, 140
104, 129, 123, 129
137, 149, 121, 120
136, 107, 120, 133
125, 113, 135, 132
112, 130, 116, 118
139, 158, 141, 118
136, 131, 139, 128
120, 124, 134, 124
126, 140, 133, 143
144, 133, 119, 144
147, 140, 133, 119
135, 137, 120, 129
142, 124, 117, 147
134, 135, 147, 122
125, 134, 151, 154
140, 139, 156, 137
149, 139, 138, 168
165, 160, 145, 157
158, 148, 173, 160
161, 172, 154, 167
187, 182, 164, 187
188, 182, 206, 206
227, 191, 184, 221
262, 258, 240, 255
291, 305, 344, 404
402, 442, 491, 568
583, 653, 782, 920
1047, 1183, 1285, 1451
1653, 1763, 1912, 2140
2290, 2391, 2573, 2694
2922, 3114, 3284, 3358
3391, 3716, 3688, 3752
3891, 3956, 4026, 3965
4021, 3975, 3994, 3891
3966, 3962, 3710, 3625
3457, 3267, 3075, 2911
2779, 2567, 2428, 2309
2097, 1951, 1809, 1677
1522, 1388, 1228, 1155
1026, 955, 808, 718
704, 633, 558, 533
483, 463, 425, 381
334, 310, 278, 266
254, 232, 224, 209
223, 219, 196, 173
170, 175, 187, 164
163, 151, 183, 158
130, 162, 146, 141
145, 148, 154, 127
175, 137, 128, 131
129, 147, 127, 139
136, 135, 141, 128
134, 136, 98, 113
121, 116, 129, 135
146, 120, 123, 113
131, 117, 130, 112
115, 123, 104, 122
104, 107, 127, 112
100, 130, 100, 127
124, 124, 112, 126
114, 125, 128, 133
107, 106, 110, 121
123, 109, 100, 96
106, 106, 100, 118
139, 119, 124, 112
108, 102, 106, 132
118, 123, 119, 103
114, 107, 108, 115
115, 100, 113, 122
107, 88, 96, 126
103, 103, 90, 112
107, 110, 109, 116
116, 104, 102, 100
109, 112, 104, 97
130, 122, 101, 97
102, 139, 117, 110
103, 108, 119, 112
108, 103, 99, 112
113, 121, 118, 103
109, 88, 113, 103
112, 110, 126, 102
129, 111, 113, 120
116, 102, 108, 106
99, 119, 121, 106
88, 122, 109, 110
115, 101, 92, 104
112, 125, 106, 97
113, 109, 112, 130
107, 97, 112, 98
123, 96, 111, 99
99, 107, 116, 106
104, 131, 111, 117
105, 88, 114, 92
108, 105, 98, 102
103, 101, 114, 106
101, 91, 102, 97
97, 102, 134, 112
124, 113, 92, 98
106, 106, 102, 95
114, 98, 101, 114
106, 101, 116, 95
116, 121, 117, 108
88, 103, 97, 95
118, 91, 101, 108
105, 113, 91, 104
86, 114, 122, 127
116, 103, 110, 126
107, 96, 102, 91
109, 87, 104, 107
118, 99, 116, 109
80, 97, 111, 112
106, 105, 108, 102
107, 108, 100, 111
97, 107, 105, 98
106, 109, 97, 93
108, 100, 111, 105
93, 101, 106, 106
96, 103, 114, 116
107, 97, 116, 95
98, 107, 100, 133
106, 85, 118, 95
125, 115, 104, 101
105, 102, 101, 115
92, 101, 113, 116
120, 116, 129, 102
97, 91, 96, 108
111, 93, 114, 109
95, 119, 102, 98
109, 119, 118, 113
89, 86, 99, 110
101, 118, 108, 117
107, 100, 108, 110
120, 84, 106, 119
95, 97, 122, 108
108, 121, 117, 95
117, 124, 110, 110
107, 93, 117, 111
92, 123, 89, 115
104, 99, 89, 95
108, 103, 95, 112
113, 96, 110, 101
92, 122, 105, 105
117, 112, 98, 94
111, 106, 114, 83
114, 101, 110, 108
92, 128, 99, 95
110, 96, 111, 112
111, 106, 115, 107
105, 103, 111, 101
102, 97, 100, 122
100, 125, 114, 102
89, 102, 107, 103
118, 108, 118, 117
88, 104, 115, 123
95, 112, 118, 96
106, 106, 110, 120
120, 116, 103, 112
92, 98, 114, 86
101, 120, 107, 97
102, 110, 110, 114
120, 101, 118, 123
105, 95, 94, 110
92, 114, 102, 94
88, 123, 122, 117
89, 115, 116, 118
108, 98, 93, 124
92, 95, 91, 105
103, 106, 94, 115
97, 93, 117, 99
114, 99, 106, 108
100, 101, 107, 100
111, 98, 107, 105
108, 112, 99, 90
117, 108, 117, 92
96, 116, 95, 119
105, 96, 115, 88
118, 118, 91, 94
96, 88, 89, 109
89, 96, 91, 102
95, 94, 126, 107
120, 115, 120, 123
127, 124, 104, 88
105, 122, 117, 102
117, 108, 104, 112
113, 126, 101, 101
109, 114, 104, 99
111, 109, 109, 114
125, 120, 104, 123
112, 87, 99, 101
114, 97, 114, 105
106, 95, 111, 106
99, 103, 103, 112
110, 107, 115, 101
107, 95, 117, 116
121, 110, 117, 103
125, 102, 112, 105
102, 96, 127, 77
109, 114, 101, 102
115, 94, 104, 94
95, 102, 116, 94
109, 111, 112, 118
95, 124, 110, 108
104, 106, 92, 102
99, 119, 117, 115
102, 109, 95, 120
118, 110, 112, 106
121, 95, 109, 103
112, 115, 106, 112
99, 99, 97, 134
108, 112, 99, 89
100, 103, 115, 112
119, 108, 107, 113
118, 100, 128, 109
119, 108, 111, 99
104, 101, 134, 113
101, 121, 112, 106
93, 116, 114, 103
113, 97, 115, 112
129, 104, 107, 125
115, 134, 106, 93
105, 100, 93, 108
88, 127, 105, 117
108, 107, 117, 112
115, 97, 116, 128
106, 104, 113, 117
102, 137, 145, 109
96, 107, 95, 80
116, 112, 119, 105
118, 115, 103, 106
92, 113, 107, 87
110, 100, 121, 102
119, 106, 108, 103
117, 94, 105, 103
111, 98, 121, 88
132, 114, 114, 121
101, 93, 110, 118
105, 122, 91, 94
108, 126, 122, 132
109, 101, 107, 101
102, 96, 78, 99
98, 115, 107, 95
125, 93, 106, 125
133, 117, 102, 98
94, 101, 115, 116
112, 104, 105, 123
100, 117, 101, 107
110, 120, 109, 94
112, 119, 102, 130
98, 118, 112, 97
128, 112, 94, 130
100, 109, 122, 94
106, 102, 116, 115
104, 114, 108, 111
113, 109, 98, 94
110, 108, 118, 123
103, 113, 98, 103
104, 106, 103, 98
108, 106, 96, 121
108, 110, 128, 114
117, 108, 109, 110
129, 94, 111, 123
103, 95, 115, 104
106, 98, 91, 94
114, 103, 98, 108
104, 117, 123, 98
95, 96, 136, 91
91, 127, 112, 114
116, 104, 123, 127
120, 104, 102, 99
130, 105, 93, 128
107, 108, 112, 119
135, 106, 114, 114
109, 100, 117, 109
115, 126, 102, 108
105, 95, 103, 122
117, 108, 110, 98
101, 96, 122, 100
110, 113, 120, 103
118, 106, 102, 104
104, 106, 100, 95
110, 126, 104, 111
107, 131, 123, 115
100, 98, 108, 124
117, 121, 117, 101
118, 118, 103, 117
112, 111, 101, 112
114, 97, 109, 108
123, 92, 117, 100
101, 127, 99, 112
105, 107, 110, 124
105, 99, 113, 136
98, 95, 116, 96
112, 105, 120, 110
107, 109, 117, 99
133, 101, 124, 120
118, 141, 117, 98
104, 93, 102, 121
97, 110, 117, 98
124, 103, 121, 110
110, 117, 114, 117
95, 93, 109, 118
121, 127, 103, 112
104, 103, 107, 110
94, 106, 92, 95
125, 122, 115, 98
128, 121, 116, 103
109, 107, 101, 127
121, 125, 100, 112
122, 109, 106, 131
120, 108, 110, 96
107, 124, 117, 102
109, 132, 114, 110
110, 119, 98, 117
116, 104, 105, 121
113, 99, 109, 107
109, 119, 134, 106
102, 114, 114, 115
102, 136, 111, 113
104, 105, 108, 98
110, 124, 115, 124
94, 107, 105, 117
126, 114, 106, 120
109, 130, 98, 101
113, 112, 110, 106
115, 104, 100, 117
94, 104, 105, 121
111, 98, 132, 106
114, 85, 108, 131
107, 114, 120, 122
107, 116, 109, 99
121, 103, 121, 125
107, 91, 98, 91
107, 110, 113, 110
93, 115, 100, 101
113, 118, 107, 108
121, 116, 129, 130
110, 110, 111, 108
117, 120, 101, 98
120, 115, 103, 98
125, 109, 109, 107
113, 89, 116, 119
111, 106, 107, 105
137, 103, 109, 112
102, 110, 131, 101
106, 122, 97, 124
111, 117, 122, 129
128, 104, 110, 133
111, 117, 114, 116
113, 129, 123, 100
127, 111, 102, 116
103, 127, 107, 119
108, 111, 112, 119
110, 108, 100, 105
110, 117, 119, 105
114, 111, 100, 109
121, 127, 141, 100
115, 97, 95, 110
120, 114, 118, 105
123, 103, 93, 118
105, 96, 125, 113
105, 108, 109, 99
113, 104, 111, 124
83, 105, 124, 92
107, 112, 98, 146
100, 121, 135, 99
132, 125, 101, 118
90, 112, 108, 104
110, 115, 103, 86
132, 106, 100, 112
94, 99, 121, 110
127, 114, 110, 127
112, 110, 110, 108
109, 112, 93, 127
125, 126, 100, 119
109, 129, 123, 117
112, 109, 102, 108
110, 119, 103, 103
116, 110, 107, 118
108, 89, 114, 120
119, 121, 115, 108
118, 107, 117, 115
107, 104, 82, 118
121, 108, 122, 106
105, 115, 106, 105
117, 93, 112, 107
119, 111, 109, 120
138, 126, 102, 75
115, 136, 106, 117
90, 103, 100, 107
98, 111, 117, 116
129, 105, 116, 121
107, 118, 116, 139
103, 101, 138, 122
91, 114, 119, 108
119, 115, 97, 123
120, 115, 113, 124
114, 117, 113, 113
119, 114, 99, 123
119, 106, 108, 100
92, 108, 107, 97
91, 106, 108, 110
123, 132, 126, 94
99, 100, 113, 119
118, 104, 112, 101
97, 100, 109, 120
127, 121, 107, 115
96, 107, 120, 122
137, 123, 112, 112
98, 104, 122, 93
116, 110, 119, 111
117, 110, 113, 117
127, 106, 112, 112
104, 122, 103, 125
104, 102, 125, 117
128, 109, 140, 118
116, 101, 120, 95
113, 103, 115, 98
109, 116, 112, 109
103, 120, 110, 130
118, 118, 103, 125
105, 83, 108, 119
131, 80, 104, 120
103, 110, 118, 127
120, 98, 93, 132
105, 93, 118, 94
108, 103, 116, 98
113, 121, 105, 110
103, 99, 108, 100
107, 86, 123, 98
116, 123, 115, 126
121, 114, 107, 88
117, 111, 134, 99
138, 100, 105, 123
141, 121, 116, 128
112, 136, 103, 101
112, 130, 112, 124
125, 111, 109, 89
124, 112, 103, 112
109, 135, 128, 109
114, 126, 100, 101
104, 109, 124, 109
108, 112, 104, 104
109, 94, 111, 118
121, 115, 130, 119
108, 107, 107, 123
101, 92, 100, 93
110, 106, 100, 119
101, 105, 108, 126
101, 111, 104, 111
110, 101, 97, 120
101, 106, 102, 94
136, 136, 108, 107
119, 112, 116, 111
108, 122, 123, 102
106, 114, 113, 119
127, 105, 135, 106
107, 96, 105, 113
113, 111, 104, 137
104, 125, 114, 120
104, 118, 127, 107
111, 133, 106, 102
111, 112, 114, 111
116, 96, 109, 92
101, 122, 128, 133
97, 105, 113, 102
125, 126, 126, 125
105, 115, 121, 109
120, 101, 119, 113
116, 92, 112, 130
105, 115, 113, 99
127, 95, 103, 119
118, 122, 125, 107
116, 104, 121, 125
119, 126, 113, 146
113, 104, 119, 105
126, 141, 138, 89
105, 96, 117, 90
94, 104, 118, 97
124, 116, 100, 101
112, 105, 106, 111
118, 109, 122, 116
121, 100, 111, 124
112, 105, 99, 106
127, 95, 114, 136
97, 106, 131, 98
106, 102, 108, 106
113, 102, 119, 119
124, 113, 114, 117
118, 102, 91, 119
98, 112, 97, 130
118, 112, 101, 110
103, 114, 118, 107
107, 128, 120, 132
109, 121, 108, 92
126, 120, 124, 98
111, 104, 104, 127
120, 109, 94, 114
113, 118, 105, 118
109, 96, 119, 104
103, 116, 105, 95
101, 110, 109, 111
98, 112, 102, 107
112, 118, 95, 117
131, 108, 114, 106
109, 128, 126, 112
113, 119, 114, 102
138, 116, 111, 119
121, 106, 132, 112
103, 121, 112, 113
120, 113, 112, 122
98, 110, 107, 107
100, 118, 123, 108
113, 120, 103, 111
117, 113, 114, 105
129, 119, 105, 117
113, 104, 106, 129
121, 128, 108, 103
117, 92, 114, 113
123, 114, 103, 113
113, 101, 95, 111
117, 122, 96, 125
107, 112, 112, 101
131, 119, 112, 101
127, 107, 114, 106
113, 110, 119, 113
116, 119, 112, 106
116, 104, 116, 117
108, 99, 106, 129
131, 106, 97, 121
136, 146, 126, 120
112, 125, 118, 109
120, 125, 126, 132
107, 126, 108, 137
110, 98, 117, 133
114, 124, 113, 132
106, 114, 97, 143
119, 126, 137, 121
110, 118, 116, 122
120, 132, 117, 130
97, 137, 130, 116
134, 128, 131, 124
136, 122, 125, 103
131, 109, 139, 121
118, 131, 150, 121
135, 121, 139, 119
116, 135, 148, 131
133, 140, 119, 121
116, 113, 118, 97
117, 135, 122, 132
111, 134, 115, 114
103, 132, 124, 124
131, 132, 117, 126
117, 118, 115, 114
133, 109, 112, 100
115, 117, 119, 112
107, 104, 115, 121
118, 110, 117, 113
105, 123, 118, 107
115, 113, 114, 95
98, 119, 138, 99
97, 118, 124, 103
93, 123, 135, 107
115, 134, 129, 114
98, 113, 138, 106
112, 110, 106, 112
125, 108, 102, 105
109, 122, 98, 114
124, 116, 123, 101
111, 122, 124, 115
128, 133, 105, 86
147, 131, 112, 95
104, 107, 125, 109
103, 135, 114, 126
99, 134, 93, 116
123, 115, 125, 116
122, 113, 107, 108
115, 118, 126, 111
96, 121, 118, 116
128, 106, 113, 114
108, 102, 113, 99
129, 114, 120, 94
117, 112, 116, 111
87, 102, 112, 116
117, 98, 117, 105
123, 96, 105, 104
129, 123, 93, 127
117, 111, 133, 105
121, 124, 130, 111
114, 115, 130, 132
113, 125, 133, 105
133, 98, 108, 126
125, 120, 116, 132
104, 111, 116, 118
120, 115, 117, 104
140, 127, 116, 110
126, 106, 120, 134
130, 106, 104, 94
103, 120, 121, 122
105, 94, 119, 109
104, 120, 111, 114
123, 109, 102, 103
107, 129, 132, 123
125, 115, 110, 120
103, 128, 110, 133
123, 122, 121, 113
121, 130, 111, 126
112, 120, 135, 114
133, 126, 133, 112
141, 129, 139, 138
135, 106, 130, 139
128, 120, 133, 125
169, 136, 123, 97
136, 129, 120, 119
156, 129, 104, 114
137, 121, 107, 126
122, 122, 118, 111
126, 109, 99, 113
100, 130, 118, 128
103, 111, 106, 135
129, 123, 104, 109
129, 129, 112, 116
120, 120, 117, 103
110, 102, 129, 93
105, 117, 116, 126
106, 124, 124, 116
103, 129, 126, 102
114, 114, 124, 106
124, 119, 106, 106
119, 112, 130, 118
122, 97, 111, 113
103, 124, 105, 108
119, 108, 109, 102
103, 116, 102, 128
111, 116, 116, 120
124, 121, 123, 122
115, 113, 126, 123
130, 118, 96, 123
121, 122, 127, 111
131, 126, 111, 115
104, 105, 125, 108
116, 125, 109, 129
95, 119, 138, 125
117, 140, 109, 91
135, 123, 118, 117
124, 145, 110, 111
101, 114, 124, 116
126, 147, 90, 121
106, 122, 112, 99
107, 105, 132, 100
132, 119, 115, 118
129, 102, 126, 131
122, 142, 130, 111
91, 107, 111, 119
133, 125, 130, 109
112, 103, 140, 128
133, 117, 110, 134
111, 133, 122, 107
139, 111, 111, 121
121, 95, 119, 108
126, 106, 104, 109
110, 132, 116, 118
102, 115, 122, 134
109, 103, 115, 104
114, 106, 120, 99
108, 115, 134, 124
118, 127, 124, 112
93, 117, 113, 104
105, 100, 100, 113
100, 119, 118, 109
140, 113, 103, 110
114, 117, 101, 110
107, 115, 129, 113
125, 108, 129, 108
144, 127, 117, 121
130, 98, 115, 115
115, 133, 108, 127
126, 129, 141, 107
120, 115, 116, 121
120, 117, 131, 123
95, 96, 118, 121
119, 120, 123, 113
113, 127, 112, 117
115, 126, 111, 125
117, 106, 111, 111
135, 123, 116, 98
117, 121, 114, 103
125, 135, 120, 122
143, 115, 110, 116
123, 114, 137, 141
127, 115, 102, 117
117, 110, 114, 120
96, 131, 114, 120
99, 118, 122, 149
110, 110, 109, 128
99, 123, 125, 122
101, 109, 114, 136
114, 120, 111, 125
125, 106, 108, 135
130, 94, 129, 114
122, 144, 126, 126
114, 127, 121, 131
118, 115, 115, 141
117, 108, 113, 110
119, 110, 128, 121
118, 125, 119, 108
109, 116, 108, 118
115, 140, 117, 105
113, 103, 119, 120
116, 126, 95, 99
122, 118, 145, 95
122, 133, 126, 123
125, 125, 131, 124
114, 102, 125, 126
120, 120, 126, 149
132, 125, 122, 133
131, 124, 125, 127
114, 118, 119, 130
115, 141, 132, 118
113, 148, 113, 137
128, 130, 124, 139
110, 161, 120, 143
148, 144, 150, 140
135, 131, 142, 145
137, 140, 165, 154
176, 175, 157, 140
167, 160, 165, 151
180, 178, 137, 132
142, 151, 159, 151
160, 129, 136, 151
132, 145, 142, 153
133, 142, 129, 135
132, 138, 116, 138
133, 128, 125, 114
130, 108, 141, 145
126, 131, 148, 116
126, 133, 128, 128
138, 118, 120, 138
132, 135, 107, 118
151, 126, 128, 120
122, 128, 131, 136
141, 138, 136, 147
146, 120, 129, 137
131, 122, 107, 139
126, 110, 152, 126
147, 136, 142, 123
133, 136, 106, 108
136, 133, 140, 105
127, 120, 132, 113
138, 130, 121, 123
128, 123, 117, 123
137, 147, 135, 124
145, 123, 107, 161
133, 121, 122, 138
114, 122, 120, 129
130, 128, 139, 140
140, 143, 125, 151
147, 124, 143, 135
111, 129, 138, 136
133, 128, 94, 152
120, 117, 140, 127
140, 130, 141, 134
120, 148, 130, 136
127, 133, 126, 131
144, 107, 139, 136
135, 146, 126, 137
136, 122, 138, 144
138, 112, 131, 131
142, 125, 144, 125
154, 125, 151, 149
107, 139, 112, 132
131, 148, 129, 114
140, 139, 136, 144
109, 135, 133, 125
133, 129, 125, 124
127, 119, 146, 129
144, 135, 121, 121
135, 144, 126, 134
154, 116, 136, 143
156, 140, 129, 147
146, 146, 147, 116
114, 134, 151, 161
126, 150, 121, 163
147, 128, 147, 167
134, 149, 139, 146
140, 153, 146, 161
130, 152, 133, 157
153, 123, 139, 153
150, 151, 126, 140
143, 143, 144, 138
131, 142, 146, 178
138, 148, 157, 133
173, 145, 129, 158
123, 127, 140, 138
150, 137, 148, 160
145, 143, 158, 129
135, 162, 167, 161
158, 189, 171, 205
172, 146, 160, 163
160, 169, 174, 170
192, 183, 177, 178
183, 189, 192, 209
196, 183, 211, 225
188, 231, 209, 237
219, 265, 222, 244
290, 297, 298, 281
314, 363, 323, 348
389, 416, 435, 441
433, 477, 553, 542
560, 612, 650, 780
761, 850, 955, 1008
1048, 1203, 1311, 1357
1478, 1628, 1749, 1899
2124, 2289, 2390, 2565
2838, 2930, 3100, 3337
3451, 3569, 3734, 3993
4116, 4222, 4371, 4381
4351, 4373, 4494, 4531
4365, 4572, 4517, 4495
4548, 4401, 4454, 4279
4123, 4062, 4041, 3924
3837, 3739, 3649, 3575
3394, 3231, 3040, 2978
2818, 2794, 2669, 2602
2438, 2286, 2188, 1998
1858, 1911, 1729, 1625
1575, 1446, 1296, 1218
1148, 1120, 953, 884
856, 773, 662, 624
601, 550, 498, 475
403, 425, 378, 356
322, 315, 262, 261
260, 277, 238, 252
223, 228, 214, 231
216, 188, 209, 202
186, 201, 174, 174
167, 173, 166, 157
158, 161, 147, 160
167, 160, 158, 149
170, 154, 168, 151
165, 137, 158, 155
141, 165, 144, 136
152, 160, 165, 139
133, 136, 157, 119
148, 140, 138, 147
140, 130, 171, 141
153, 143, 141, 152
123, 138, 117, 115
140, 130, 155, 137
140, 153, 152, 158
130, 154, 119, 124
138, 142, 150, 119
143, 153, 138, 129
116, 149, 144, 117
128, 125, 129, 144
116, 116, 145, 118
148, 110, 123, 156
140, 136, 124, 154
129, 122, 130, 117
138, 115, 127, 133
133, 125, 116, 113
156, 132, 132, 137
125, 147, 125, 121
129, 136, 118, 120
119, 143, 131, 130
138, 134, 133, 128
117, 118, 134, 140
117, 115, 123, 119
139, 121, 140, 118
136, 127, 113, 135
110, 123, 139, 143
119, 120, 136, 144
132, 116, 138, 133
140, 124, 121, 138
119, 111, 154, 115
103, 115, 110, 131
132, 138, 103, 136
132, 136, 126, 140
121, 119, 103, 132
138, 130, 127, 135
140, 139, 105, 110
145, 131, 108, 140
134, 115, 114, 131
128, 126, 151, 124
143, 132, 116, 131
126, 145, 131, 124
130, 113, 134, 126
132, 119, 128, 131
116, 126, 135, 131
128, 128, 147, 132
141, 114, 161, 115
124, 97, 116, 140
148, 125, 137, 120
117, 117, 125, 147
132, 139, 130, 111
129, 130, 106, 110
127, 128, 130, 103
127, 100, 142, 119
118, 135, 138, 125
140, 128, 157, 143
121, 112, 121, 136
135, 127, 96, 121
127, 123, 118, 119
136, 125, 125, 157
123, 128, 122, 131
147, 115, 129, 114
137, 122, 127, 119
133, 122, 125, 133
127, 101, 120, 117
132, 127, 110, 120
125, 132, 121, 131
125, 147, 108, 117
122, 115, 144, 119
116, 125, 138, 146
122, 137, 102, 136
134, 131, 128, 117
116, 124, 122, 118
125, 110, 119, 107
137, 118, 134, 118
105, 130, 119, 106
98, 121, 125, 120
118, 121, 121, 133
125, 106, 153, 92
121, 126, 114, 138
115, 133, 102, 108
131, 132, 107, 114
134, 132, 111, 121
114, 136, 139, 119
119, 138, 136, 129
134, 137, 137, 119
131, 99, 117, 137
115
*END

*EOF
