*TYPE		=  Raw
*CLASS		=  ASCII CLASS
*SAMPLE		=   
*COMMENT	=   
*FNAME		=  1-4_2-Theta_Omega.asc
*DATE		=  11-Dec-25 15:21

*GROUP_COUNT	=  1
*GONIO		=  SmartLab(In-plane), 0.000000
*ATTACHMENT	=  Z-Phi Stage
*ASC		=  0, 0, 0.000000, 0.000000
*I_MONOCHRO	=  Soller_slit_5.0deg, 0.000000
*FILTER		=  None
*C_MONOCHRO	=  None, 0.000000
*SLIT_NAME	=  0, Incident slit
*SLIT_NAME	=  1, Receiving slit # 1
*SLIT_NAME	=  2, Receiving slit # 2
*COUNTER	=  SC-70, 0
*POS_FORMAT	=  0
*SCAN_AXIS	=  2Theta/Omega
*MEAS_MODE	=  Continuous Scanning
*TARGET		=  29
*XRAY_CHAR	=  K-ALPHA
*WAVE_LENGTH1	=  1.54059
*WAVE_LENGTH2	=  1.54441
*THICKNESS	=  0, 0.000000
*MU		=  0, 0.000000
*SCAN_MODE	=  2Theta/Omega
*SPEED_DIM	=  sec./step
*XUNIT		=  deg.
*YUNIT		=  counts
*SCALE_MODE	=  1
*REP_COUNT	=  0
*SE_COUNT	=  0
*STD_MATERIAL	=  Unknown, Unknown, 0.000000, 0.000000, 0.000000, 0.000000, 0.000000, 0.000000
*LATT_CONS	=  0, Unknown, Unknown, 0.000000, 0.000000, 0.000000, 0.000000, 0.000000, 0.000000
*SEC_COUNT	=  1
*TSPEC_SIZE	=  0
*EXTRA_SIZE	=  0
*MEMO		=   

*BEGIN
*GROUP		=  0
*START		=  20
*STOP		=  80
*STEP		=  0.01
*OFFSET		=  0.000000
*SPEED		=  0.05
*SLIT_SPEC	=  0, 1.000mm, 1, 0.000000
*SLIT_SPEC	=  1, 1.000mm, 1, 0.000000
*SLIT_SPEC	=  2, 1.000mm, 1, 0.000000
*KV		=  40
*MA		=  100
*LOW		=  0.000000
*HIGH		=  0.000000
*CTEMPER	=  0, 0.000000
*CTEMPER	=  1, 0.000000
*CTEMPER	=  2, 0.000000
*PAREX		=  0, 0.000000
*PAREX		=  1, 0.000000
*PAREX		=  2, 0.000000
*PAREX		=  3, 0.000000
*PAREX		=  4, 0.000000
*PAREX		=  5, 0.000000
*PAREX		=  6, 0.000000
*PAREX		=  7, 0.000000
*PAREX		=  8, 0.000000
*PAREX		=  9, 0.000000
*PAREX		=  10, 0.000000
*PAREX		=  11, 0.000000
*PAREX		=  12, 0.000000
*PAREX		=  13, 0.000000
*PAREX		=  14, 0.000000
*PAREX		=  15, 0.000000
*FULL_SCALE	=  7440
*INDEX		=  0, 0, 0
*COUNT		=  6001
76, 75, 86, 78
76, 82, 86, 70
72, 80, 79, 79
87, 78, 98, 70
78, 84, 71, 75
88, 89, 83, 70
77, 75, 78, 65
68, 74, 80, 69
96, 76, 77, 77
83, 91, 64, 81
95, 71, 92, 69
90, 84, 98, 78
87, 84, 84, 94
95, 63, 86, 76
95, 78, 70, 76
79, 79, 64, 79
84, 87, 83, 82
83, 74, 84, 92
71, 84, 84, 90
85, 79, 96, 86
78, 78, 84, 107
92, 85, 91, 97
82, 90, 87, 87
92, 88, 85, 100
84, 73, 86, 95
104, 81, 92, 89
88, 93, 94, 89
87, 56, 97, 105
77, 78, 91, 75
99, 96, 92, 100
74, 70, 74, 77
90, 90, 99, 89
77, 70, 93, 77
71, 84, 87, 77
80, 82, 79, 105
91, 74, 88, 75
79, 83, 84, 75
87, 77, 90, 81
61, 72, 67, 86
82, 81, 77, 99
94, 59, 72, 80
70, 78, 67, 102
97, 77, 90, 81
82, 85, 79, 83
79, 80, 79, 57
72, 63, 69, 71
76, 72, 69, 78
82, 72, 105, 79
107, 83, 81, 105
101, 100, 96, 110
91, 85, 109, 101
85, 94, 76, 84
87, 99, 78, 79
86, 88, 84, 95
64, 89, 76, 78
87, 70, 104, 91
77, 86, 74, 99
98, 83, 90, 80
75, 77, 69, 71
62, 79, 86, 82
81, 72, 67, 92
73, 64, 92, 80
84, 68, 78, 73
86, 90, 70, 61
74, 82, 82, 66
72, 70, 81, 71
78, 83, 73, 92
84, 88, 70, 87
67, 62, 68, 60
80, 81, 77, 71
74, 73, 91, 77
81, 62, 79, 72
92, 80, 76, 77
67, 69, 64, 56
64, 83, 84, 74
71, 66, 79, 75
57, 68, 82, 75
89, 85, 57, 87
84, 62, 76, 65
74, 56, 69, 78
93, 61, 69, 81
73, 75, 80, 70
70, 89, 74, 78
81, 93, 51, 85
69, 78, 78, 88
64, 74, 59, 75
72, 85, 79, 56
74, 89, 79, 70
89, 92, 63, 67
93, 79, 74, 70
60, 90, 77, 71
53, 90, 85, 77
60, 79, 75, 90
81, 61, 91, 65
84, 75, 71, 80
58, 65, 63, 74
79, 81, 77, 90
69, 80, 79, 64
87, 74, 85, 71
78, 60, 80, 70
79, 90, 79, 70
63, 89, 83, 67
76, 71, 67, 89
75, 85, 69, 72
75, 75, 77, 95
88, 64, 72, 72
74, 85, 102, 71
84, 66, 79, 81
69, 75, 83, 61
74, 69, 78, 87
76, 109, 92, 63
74, 83, 88, 83
78, 72, 64, 68
93, 76, 63, 87
77, 88, 63, 82
91, 79, 68, 83
73, 76, 67, 83
70, 70, 83, 86
68, 64, 89, 82
71, 90, 60, 71
70, 74, 72, 64
75, 78, 66, 83
97, 87, 82, 71
84, 81, 83, 79
73, 62, 81, 67
72, 71, 68, 68
78, 72, 76, 81
57, 66, 75, 64
79, 69, 83, 81
90, 94, 72, 68
78, 65, 89, 76
81, 81, 74, 70
70, 73, 78, 89
85, 87, 71, 74
65, 67, 70, 83
81, 89, 64, 72
66, 79, 74, 65
80, 78, 82, 65
82, 79, 67, 82
79, 90, 85, 101
77, 72, 92, 79
70, 63, 76, 79
89, 85, 78, 76
71, 81, 89, 86
80, 78, 76, 85
72, 62, 82, 86
87, 79, 85, 78
64, 80, 84, 69
70, 70, 89, 70
71, 80, 83, 69
77, 80, 57, 73
84, 66, 71, 78
75, 85, 81, 74
71, 69, 95, 76
74, 83, 66, 69
77, 85, 97, 74
81, 77, 69, 84
80, 92, 78, 71
100, 72, 69, 93
75, 81, 97, 73
66, 82, 74, 84
69, 81, 79, 92
78, 68, 88, 79
76, 72, 88, 82
56, 82, 82, 85
75, 76, 100, 88
89, 89, 79, 70
76, 69, 83, 72
85, 81, 73, 66
64, 59, 85, 66
74, 80, 86, 77
81, 71, 75, 62
89, 73, 102, 88
71, 77, 75, 76
85, 67, 69, 79
75, 63, 67, 75
76, 74, 89, 68
92, 61, 79, 75
77, 71, 80, 88
86, 87, 93, 60
82, 67, 75, 68
75, 82, 76, 77
78, 77, 82, 81
66, 86, 59, 86
76, 48, 79, 86
71, 65, 86, 77
73, 70, 76, 84
72, 63, 72, 78
60, 51, 76, 72
94, 69, 68, 74
77, 62, 61, 63
71, 85, 67, 63
78, 59, 93, 76
70, 74, 94, 83
69, 66, 77, 73
74, 75, 72, 75
77, 71, 85, 81
80, 80, 89, 71
79, 90, 70, 62
73, 77, 64, 62
74, 75, 67, 81
74, 76, 55, 71
72, 87, 71, 63
85, 63, 91, 82
76, 64, 89, 72
92, 76, 70, 78
65, 87, 83, 78
82, 86, 74, 75
88, 77, 64, 73
80, 86, 82, 89
74, 70, 77, 74
68, 71, 67, 72
78, 75, 75, 86
80, 94, 71, 70
78, 77, 68, 78
71, 75, 74, 62
69, 71, 75, 78
64, 70, 80, 82
68, 84, 82, 63
74, 77, 90, 74
78, 79, 75, 81
73, 78, 78, 70
86, 81, 87, 86
70, 70, 64, 77
69, 93, 82, 96
71, 67, 75, 65
73, 77, 64, 70
67, 78, 67, 66
71, 88, 65, 83
74, 65, 62, 82
73, 78, 77, 68
75, 82, 74, 78
72, 81, 89, 82
80, 86, 84, 70
75, 81, 75, 55
74, 65, 75, 75
66, 61, 82, 71
66, 76, 74, 74
78, 76, 82, 83
74, 78, 73, 89
73, 68, 65, 63
69, 81, 69, 82
88, 61, 73, 74
88, 60, 71, 85
68, 82, 80, 82
79, 77, 74, 75
87, 64, 70, 73
71, 64, 71, 70
74, 71, 60, 85
73, 75, 80, 66
65, 93, 72, 71
77, 69, 77, 73
81, 67, 72, 84
83, 67, 73, 75
65, 53, 69, 75
82, 89, 93, 75
69, 76, 68, 78
73, 60, 75, 72
84, 106, 86, 83
79, 70, 59, 63
66, 77, 82, 67
61, 60, 78, 69
70, 80, 72, 66
68, 77, 63, 72
80, 72, 87, 57
67, 79, 88, 82
72, 63, 79, 88
52, 82, 76, 91
74, 77, 83, 63
87, 85, 55, 65
80, 84, 85, 62
72, 78, 81, 81
66, 82, 84, 80
66, 62, 63, 62
75, 77, 78, 67
77, 75, 76, 91
61, 84, 75, 70
65, 88, 70, 83
77, 73, 72, 78
75, 66, 83, 89
102, 75, 94, 74
94, 61, 55, 73
79, 68, 93, 82
72, 65, 76, 91
86, 67, 79, 77
75, 85, 64, 74
67, 75, 72, 78
69, 66, 71, 63
69, 77, 79, 64
71, 79, 76, 72
75, 78, 73, 96
81, 81, 87, 78
68, 69, 86, 58
82, 87, 78, 66
69, 76, 78, 72
79, 79, 52, 81
79, 93, 71, 76
84, 60, 75, 68
76, 65, 84, 78
76, 81, 74, 65
69, 81, 61, 68
55, 79, 64, 93
81, 71, 68, 64
79, 71, 73, 81
59, 76, 68, 69
62, 80, 79, 74
77, 71, 57, 77
79, 66, 79, 62
83, 72, 71, 64
69, 73, 64, 70
76, 71, 66, 71
74, 85, 69, 79
81, 78, 75, 72
67, 75, 69, 66
78, 76, 89, 92
59, 81, 69, 73
83, 67, 74, 83
64, 85, 67, 58
82, 85, 63, 74
68, 73, 73, 72
63, 56, 75, 76
77, 64, 83, 61
86, 71, 76, 91
72, 62, 81, 73
78, 82, 69, 68
75, 70, 68, 88
60, 76, 65, 74
56, 78, 72, 70
52, 66, 68, 87
82, 78, 83, 72
73, 66, 81, 73
70, 56, 80, 78
70, 71, 64, 70
73, 83, 69, 77
78, 73, 79, 77
65, 91, 67, 73
82, 84, 70, 69
62, 79, 69, 58
61, 69, 65, 71
79, 55, 81, 69
74, 72, 74, 70
81, 74, 74, 80
69, 78, 75, 65
58, 83, 95, 68
67, 82, 77, 89
79, 69, 82, 80
71, 70, 87, 73
75, 53, 71, 84
75, 66, 67, 77
78, 67, 73, 70
74, 70, 87, 79
74, 75, 75, 85
70, 70, 66, 70
82, 66, 63, 65
74, 89, 79, 71
82, 69, 62, 77
82, 72, 75, 60
63, 78, 74, 84
66, 59, 75, 49
60, 77, 71, 75
60, 67, 58, 54
62, 74, 90, 81
86, 71, 67, 80
70, 72, 74, 86
78, 69, 44, 60
54, 69, 72, 73
74, 64, 56, 68
87, 68, 71, 69
69, 73, 74, 78
65, 78, 59, 69
66, 66, 69, 69
71, 96, 52, 58
85, 73, 78, 65
57, 66, 71, 83
67, 82, 83, 83
83, 82, 54, 64
78, 75, 63, 64
79, 83, 77, 70
65, 66, 73, 78
87, 76, 67, 85
64, 82, 76, 71
64, 68, 86, 80
80, 72, 71, 79
95, 77, 75, 77
68, 77, 75, 76
85, 74, 73, 85
71, 87, 65, 76
67, 78, 65, 83
78, 80, 72, 69
71, 81, 66, 69
77, 67, 75, 73
79, 63, 78, 97
74, 69, 84, 65
85, 91, 71, 77
66, 76, 65, 79
60, 74, 69, 89
83, 74, 77, 64
69, 83, 84, 65
67, 77, 56, 68
67, 76, 69, 80
76, 56, 77, 67
77, 74, 61, 80
74, 72, 60, 72
77, 77, 74, 63
66, 76, 61, 75
71, 81, 77, 80
65, 86, 63, 72
57, 77, 92, 67
94, 65, 66, 68
63, 68, 70, 89
83, 72, 58, 83
69, 79, 59, 65
60, 86, 74, 61
66, 70, 60, 71
73, 83, 77, 77
70, 86, 70, 93
78, 71, 59, 81
74, 63, 84, 64
83, 74, 68, 71
63, 69, 76, 67
81, 69, 69, 64
60, 57, 80, 63
73, 66, 70, 58
71, 75, 58, 68
68, 58, 66, 71
71, 77, 61, 77
75, 71, 63, 79
53, 69, 92, 65
71, 72, 70, 65
87, 73, 74, 78
76, 62, 61, 64
67, 76, 83, 74
81, 76, 86, 69
71, 76, 85, 80
90, 74, 70, 75
70, 83, 66, 70
68, 66, 52, 79
69, 76, 73, 59
65, 71, 71, 73
71, 82, 84, 58
72, 74, 77, 76
78, 80, 82, 84
80, 88, 83, 69
75, 75, 82, 60
72, 75, 84, 69
78, 68, 80, 76
81, 69, 74, 74
60, 81, 70, 74
81, 74, 87, 94
68, 73, 82, 75
63, 80, 79, 56
72, 76, 75, 73
75, 69, 72, 70
69, 62, 66, 69
75, 63, 80, 88
74, 76, 66, 56
68, 79, 79, 67
66, 72, 73, 77
56, 75, 72, 82
70, 89, 87, 80
77, 85, 65, 66
62, 88, 83, 65
84, 73, 54, 66
83, 81, 81, 84
83, 78, 78, 65
68, 71, 68, 77
72, 76, 77, 75
82, 66, 72, 67
84, 72, 66, 78
65, 69, 66, 61
86, 72, 77, 71
82, 78, 77, 85
73, 67, 70, 85
92, 66, 64, 73
83, 56, 73, 70
91, 61, 77, 72
68, 66, 68, 78
65, 86, 72, 60
76, 67, 79, 74
84, 71, 82, 71
72, 77, 90, 74
80, 68, 68, 73
74, 77, 67, 81
77, 81, 74, 63
70, 60, 59, 73
83, 74, 76, 74
73, 79, 74, 76
76, 74, 81, 72
61, 93, 64, 60
81, 85, 59, 81
76, 79, 68, 79
78, 70, 77, 77
61, 73, 65, 80
71, 64, 72, 72
64, 74, 74, 90
78, 91, 79, 62
71, 80, 78, 54
90, 64, 69, 75
65, 74, 73, 77
83, 68, 76, 83
68, 86, 62, 88
69, 79, 68, 69
77, 75, 69, 76
85, 73, 74, 76
82, 67, 64, 91
77, 76, 67, 85
77, 74, 61, 72
70, 64, 75, 73
68, 66, 80, 92
85, 80, 64, 71
73, 65, 78, 71
85, 72, 76, 83
76, 72, 83, 67
81, 75, 72, 84
72, 77, 87, 71
65, 68, 72, 94
73, 72, 93, 84
85, 58, 88, 79
73, 77, 78, 61
68, 74, 80, 49
64, 69, 80, 82
78, 79, 90, 74
76, 63, 61, 70
73, 92, 76, 61
101, 72, 82, 69
73, 92, 67, 81
73, 85, 92, 74
85, 79, 66, 88
85, 80, 87, 86
70, 67, 104, 78
82, 71, 72, 74
69, 70, 75, 81
78, 69, 72, 66
66, 78, 65, 75
74, 56, 69, 72
78, 112, 83, 80
73, 91, 70, 102
69, 74, 81, 64
82, 68, 73, 84
86, 68, 76, 96
72, 62, 76, 80
78, 78, 78, 89
85, 92, 92, 91
89, 111, 107, 124
148, 148, 161, 146
181, 205, 201, 214
221, 258, 245, 268
254, 288, 280, 295
294, 294, 299, 295
287, 275, 262, 210
235, 193, 173, 221
208, 157, 147, 171
140, 143, 148, 121
104, 117, 96, 93
92, 75, 77, 84
89, 78, 79, 73
79, 89, 96, 102
77, 77, 68, 66
101, 102, 87, 84
80, 70, 103, 75
89, 75, 81, 79
65, 77, 74, 108
75, 85, 71, 101
61, 83, 92, 71
68, 88, 82, 92
89, 91, 80, 72
80, 96, 80, 89
65, 85, 80, 69
83, 66, 68, 81
71, 101, 86, 72
67, 90, 85, 82
65, 77, 71, 81
71, 73, 93, 86
68, 75, 81, 59
59, 83, 82, 80
64, 80, 84, 88
68, 75, 74, 91
89, 84, 98, 81
89, 83, 86, 76
84, 93, 70, 90
96, 83, 76, 81
65, 89, 78, 80
94, 85, 78, 73
86, 91, 81, 76
93, 71, 75, 80
86, 94, 83, 90
85, 83, 92, 85
84, 80, 85, 84
77, 106, 90, 87
86, 102, 109, 96
76, 122, 118, 84
106, 93, 91, 105
116, 105, 99, 121
119, 114, 132, 163
158, 178, 157, 177
231, 193, 222, 216
233, 288, 260, 278
266, 287, 292, 300
287, 310, 293, 283
260, 290, 295, 268
263, 275, 255, 223
234, 248, 242, 240
245, 236, 205, 203
212, 179, 209, 206
214, 199, 210, 202
208, 207, 193, 225
197, 211, 203, 228
228, 223, 216, 222
180, 215, 190, 198
233, 213, 184, 202
179, 186, 180, 194
166, 165, 176, 148
151, 126, 146, 145
131, 119, 122, 120
133, 126, 126, 106
98, 98, 81, 97
90, 102, 100, 104
92, 86, 88, 91
102, 79, 76, 86
97, 76, 86, 74
73, 92, 65, 69
83, 73, 91, 80
91, 81, 75, 65
76, 82, 78, 76
90, 68, 61, 70
80, 91, 87, 103
85, 88, 85, 88
79, 81, 73, 92
76, 79, 75, 83
75, 88, 63, 87
88, 84, 60, 67
76, 89, 72, 74
79, 67, 75, 82
85, 85, 85, 66
70, 66, 73, 78
91, 76, 84, 78
66, 65, 67, 83
77, 63, 70, 88
60, 74, 83, 79
66, 78, 82, 63
66, 76, 75, 83
89, 69, 70, 81
84, 68, 83, 74
68, 70, 77, 83
67, 77, 72, 70
76, 67, 61, 78
85, 76, 98, 91
79, 61, 74, 86
67, 84, 76, 58
74, 71, 65, 75
68, 64, 64, 82
80, 81, 67, 70
64, 76, 80, 83
94, 65, 82, 83
81, 77, 68, 66
65, 64, 86, 77
68, 70, 77, 63
79, 69, 55, 60
86, 61, 72, 85
63, 78, 80, 78
84, 78, 73, 69
68, 81, 83, 62
57, 69, 80, 73
80, 79, 73, 93
93, 74, 87, 80
70, 84, 82, 79
58, 77, 78, 65
67, 73, 62, 86
77, 74, 62, 81
61, 79, 68, 72
82, 78, 74, 74
66, 85, 87, 81
67, 62, 65, 68
86, 81, 62, 58
66, 79, 81, 76
83, 74, 75, 84
77, 97, 77, 90
85, 77, 77, 72
85, 70, 76, 91
77, 83, 70, 83
84, 82, 89, 65
71, 75, 75, 66
73, 65, 69, 73
84, 77, 80, 75
65, 79, 76, 75
77, 75, 72, 81
78, 69, 80, 71
82, 77, 81, 60
78, 86, 78, 74
72, 83, 59, 77
78, 78, 92, 82
87, 79, 66, 76
79, 65, 67, 58
72, 80, 75, 81
68, 89, 79, 79
61, 92, 77, 61
84, 62, 65, 74
87, 81, 62, 70
75, 65, 71, 75
68, 73, 77, 70
85, 75, 71, 77
85, 84, 79, 74
61, 57, 76, 81
80, 57, 80, 65
75, 67, 76, 83
72, 73, 89, 84
81, 75, 76, 75
76, 70, 72, 90
69, 74, 82, 66
73, 76, 89, 71
81, 73, 78, 65
88, 79, 77, 70
78, 68, 68, 64
84, 69, 65, 64
61, 81, 74, 61
72, 86, 68, 70
68, 71, 81, 54
93, 77, 71, 84
64, 71, 80, 76
90, 73, 73, 67
56, 67, 96, 66
75, 82, 75, 67
84, 83, 75, 73
87, 83, 63, 78
76, 79, 69, 76
86, 69, 79, 64
83, 78, 78, 81
82, 58, 71, 63
86, 70, 56, 76
69, 68, 76, 63
88, 87, 85, 75
73, 71, 76, 78
66, 78, 65, 79
61, 85, 71, 74
77, 64, 70, 78
69, 72, 66, 72
97, 77, 77, 62
72, 86, 84, 79
87, 76, 87, 66
80, 75, 86, 81
73, 84, 64, 68
69, 81, 79, 77
66, 68, 75, 74
60, 78, 79, 62
65, 67, 81, 74
72, 91, 66, 74
80, 73, 79, 61
78, 66, 91, 80
77, 61, 67, 81
76, 66, 65, 60
87, 70, 68, 85
70, 77, 63, 75
65, 69, 86, 84
66, 59, 69, 88
68, 65, 89, 69
86, 66, 92, 65
82, 75, 69, 75
80, 68, 71, 58
65, 73, 74, 83
81, 69, 83, 64
86, 87, 70, 57
75, 83, 64, 71
71, 77, 67, 79
68, 73, 87, 76
82, 79, 74, 83
76, 72, 90, 70
63, 67, 86, 90
73, 78, 67, 81
72, 87, 83, 69
78, 64, 74, 79
63, 69, 81, 70
76, 101, 81, 68
90, 76, 85, 83
73, 71, 85, 83
78, 84, 75, 76
68, 79, 70, 71
85, 74, 73, 85
73, 62, 82, 75
80, 70, 77, 85
66, 87, 81, 77
77, 85, 74, 67
69, 71, 59, 70
93, 65, 88, 64
86, 89, 82, 76
69, 73, 72, 81
87, 77, 76, 63
67, 68, 75, 80
80, 67, 69, 79
72, 73, 79, 60
94, 77, 94, 85
77, 83, 82, 67
75, 68, 62, 97
55, 79, 81, 81
71, 78, 57, 63
66, 66, 75, 77
77, 66, 68, 62
68, 77, 68, 59
64, 89, 75, 82
74, 74, 66, 69
91, 81, 68, 65
83, 69, 80, 80
72, 75, 71, 61
64, 86, 67, 89
73, 76, 69, 78
74, 67, 77, 80
82, 63, 70, 59
60, 81, 72, 74
77, 84, 67, 91
75, 64, 84, 85
73, 76, 74, 83
87, 69, 74, 84
69, 67, 84, 81
64, 64, 76, 82
65, 67, 84, 68
65, 82, 72, 85
81, 56, 70, 60
68, 85, 92, 66
63, 86, 66, 77
85, 78, 72, 69
71, 67, 75, 72
82, 83, 89, 80
58, 74, 71, 65
59, 70, 87, 77
93, 76, 59, 78
77, 76, 82, 77
70, 76, 73, 83
70, 74, 72, 76
99, 81, 66, 66
70, 84, 81, 74
64, 78, 67, 84
94, 76, 61, 75
86, 69, 81, 57
77, 83, 75, 59
68, 68, 80, 71
66, 72, 65, 69
83, 83, 84, 74
73, 72, 70, 78
86, 76, 84, 94
87, 85, 82, 74
65, 87, 86, 68
69, 70, 82, 88
61, 69, 70, 72
70, 75, 83, 96
65, 77, 81, 80
76, 77, 76, 73
67, 86, 76, 56
79, 85, 82, 63
80, 71, 71, 76
72, 79, 77, 63
83, 61, 69, 73
66, 72, 82, 94
68, 61, 75, 79
70, 77, 74, 66
72, 80, 80, 80
75, 89, 63, 82
72, 74, 72, 86
76, 76, 61, 74
85, 83, 77, 67
68, 67, 69, 75
76, 85, 79, 82
73, 76, 78, 67
63, 75, 81, 89
84, 98, 86, 78
71, 74, 80, 89
67, 74, 79, 82
81, 61, 89, 67
76, 97, 69, 71
83, 70, 61, 88
53, 75, 80, 66
80, 85, 57, 65
70, 69, 92, 77
73, 69, 76, 81
73, 51, 83, 85
72, 62, 95, 70
77, 79, 64, 74
81, 81, 81, 70
75, 71, 84, 92
81, 55, 89, 72
79, 88, 71, 74
72, 83, 89, 65
86, 68, 73, 68
82, 80, 78, 69
65, 102, 86, 76
66, 83, 68, 94
83, 89, 68, 85
62, 91, 69, 55
72, 63, 61, 82
81, 70, 66, 75
77, 68, 76, 67
58, 76, 73, 65
90, 93, 90, 71
66, 64, 78, 77
66, 58, 82, 82
84, 60, 92, 73
61, 81, 73, 82
90, 88, 66, 63
68, 63, 76, 71
73, 82, 73, 88
63, 100, 77, 83
66, 73, 61, 96
84, 72, 68, 77
57, 68, 72, 70
61, 75, 69, 77
77, 89, 90, 87
66, 71, 90, 73
68, 76, 88, 78
71, 90, 75, 67
69, 87, 77, 80
76, 68, 76, 77
82, 71, 72, 85
78, 67, 68, 85
66, 78, 76, 87
79, 81, 76, 78
64, 72, 71, 77
81, 62, 61, 62
64, 59, 83, 60
68, 75, 53, 92
63, 58, 66, 87
77, 75, 71, 84
80, 66, 85, 75
74, 93, 88, 72
69, 75, 73, 72
79, 77, 85, 79
64, 69, 94, 72
80, 87, 83, 81
77, 74, 69, 74
81, 71, 79, 62
73, 74, 65, 66
67, 61, 69, 85
72, 57, 78, 78
70, 75, 71, 70
64, 81, 86, 75
60, 66, 78, 77
79, 79, 86, 84
79, 80, 85, 74
61, 81, 85, 61
71, 67, 61, 83
92, 73, 84, 64
73, 76, 93, 88
67, 86, 70, 95
83, 73, 71, 82
77, 69, 71, 61
73, 75, 74, 69
73, 79, 80, 81
79, 82, 72, 71
85, 80, 81, 77
74, 67, 79, 67
76, 81, 71, 67
79, 84, 64, 81
77, 73, 67, 69
61, 86, 77, 68
71, 85, 69, 73
70, 72, 64, 72
85, 82, 71, 81
87, 84, 61, 82
77, 76, 74, 75
66, 59, 72, 83
78, 83, 70, 80
72, 80, 91, 74
84, 85, 60, 67
67, 76, 67, 73
72, 71, 63, 90
66, 53, 61, 72
88, 73, 75, 94
70, 97, 69, 82
82, 74, 88, 73
81, 88, 79, 72
67, 79, 76, 79
76, 69, 66, 71
71, 70, 94, 62
98, 80, 77, 73
78, 64, 73, 68
81, 93, 79, 91
82, 80, 80, 73
78, 84, 63, 62
88, 74, 64, 83
86, 60, 75, 68
66, 73, 74, 69
73, 71, 71, 80
83, 80, 86, 92
71, 56, 83, 74
70, 91, 83, 84
77, 65, 62, 71
65, 69, 75, 81
90, 74, 67, 63
63, 72, 82, 84
98, 70, 71, 80
81, 86, 82, 70
78, 77, 78, 71
77, 94, 76, 85
82, 74, 69, 68
86, 73, 73, 66
91, 62, 77, 86
71, 73, 88, 61
62, 66, 78, 86
76, 70, 86, 81
71, 62, 67, 91
77, 70, 79, 98
66, 71, 78, 90
63, 79, 71, 77
78, 103, 75, 78
63, 61, 81, 83
74, 74, 76, 62
60, 75, 77, 61
75, 61, 86, 85
97, 67, 71, 66
78, 92, 78, 81
70, 64, 73, 92
83, 64, 90, 86
74, 72, 78, 75
84, 65, 75, 74
68, 60, 53, 73
69, 78, 84, 81
63, 79, 83, 71
81, 62, 83, 76
77, 76, 72, 63
68, 85, 66, 88
77, 79, 89, 78
77, 72, 84, 79
78, 80, 77, 85
70, 87, 80, 78
82, 68, 81, 82
89, 82, 76, 82
70, 93, 87, 82
80, 77, 71, 75
69, 79, 93, 81
68, 72, 67, 83
65, 86, 76, 104
71, 70, 80, 96
75, 90, 81, 80
81, 70, 77, 64
66, 79, 82, 80
81, 71, 68, 96
69, 67, 85, 95
83, 79, 90, 80
73, 65, 82, 75
70, 82, 77, 77
86, 64, 82, 69
77, 83, 57, 75
75, 80, 69, 82
78, 69, 69, 71
75, 81, 90, 82
77, 78, 81, 82
76, 83, 84, 88
89, 85, 78, 68
73, 62, 85, 75
78, 65, 78, 70
83, 80, 87, 76
58, 71, 77, 56
79, 88, 65, 76
67, 70, 74, 75
87, 71, 85, 82
79, 80, 72, 75
71, 52, 75, 73
91, 90, 85, 74
73, 80, 70, 67
88, 86, 80, 81
84, 91, 85, 82
88, 82, 78, 71
71, 69, 91, 80
75, 88, 72, 86
59, 64, 70, 83
72, 68, 77, 82
65, 75, 70, 80
73, 56, 74, 64
76, 79, 63, 75
93, 87, 82, 79
67, 74, 66, 77
86, 72, 90, 72
77, 78, 86, 70
82, 77, 70, 80
61, 89, 58, 80
83, 93, 82, 65
62, 79, 77, 81
87, 85, 76, 77
89, 75, 78, 79
61, 76, 80, 69
73, 71, 76, 65
68, 85, 76, 68
76, 66, 78, 66
84, 89, 68, 82
69, 69, 84, 75
79, 68, 66, 80
69, 83, 68, 70
87, 69, 78, 74
95, 68, 76, 68
76, 66, 71, 64
74, 88, 76, 79
81, 70, 84, 77
80, 77, 80, 90
76, 84, 71, 69
81, 71, 78, 71
81, 78, 73, 80
83, 72, 81, 73
64, 71, 79, 64
78, 84, 78, 79
88, 73, 67, 75
90, 90, 72, 66
73, 85, 82, 77
80, 88, 98, 72
83, 73, 67, 95
63, 90, 96, 86
89, 94, 80, 72
68, 79, 67, 100
67, 78, 96, 74
94, 85, 74, 96
88, 81, 78, 93
87, 92, 74, 96
92, 94, 87, 65
88, 82, 81, 101
83, 80, 85, 84
96, 113, 97, 104
90, 95, 92, 98
107, 83, 96, 90
92, 91, 85, 97
94, 83, 93, 81
90, 89, 86, 89
99, 77, 90, 77
103, 86, 88, 88
84, 84, 97, 90
82, 98, 89, 82
107, 82, 88, 87
80, 83, 80, 78
75, 74, 90, 85
71, 77, 77, 84
83, 77, 69, 84
77, 66, 78, 93
71, 79, 76, 77
78, 73, 86, 79
76, 81, 78, 86
97, 83, 69, 81
73, 85, 81, 77
72, 76, 61, 75
76, 84, 74, 77
102, 73, 61, 80
86, 71, 83, 86
76, 86, 80, 63
75, 98, 84, 74
65, 91, 72, 78
83, 94, 66, 70
91, 87, 77, 84
83, 77, 84, 66
79, 79, 84, 80
84, 87, 79, 75
78, 68, 78, 85
67, 82, 86, 75
79, 75, 87, 83
74, 69, 73, 85
75, 84, 72, 93
69, 80, 67, 72
86, 71, 77, 87
98, 79, 90, 75
74, 68, 84, 84
75, 70, 97, 78
79, 83, 68, 60
73, 71, 78, 80
77, 90, 71, 77
77, 82, 79, 74
69, 91, 79, 80
84, 89, 69, 78
94, 68, 85, 81
74, 82, 74, 75
80, 81, 76, 88
63, 77, 88, 93
75, 79, 74, 71
100, 82, 67, 80
84, 76, 88, 85
64, 91, 74, 86
75, 79, 84, 80
95, 64, 63, 72
74, 102, 77, 83
78, 78, 82, 74
72, 72, 66, 78
76, 80, 78, 61
76, 70, 94, 78
89, 87, 94, 82
78, 104, 81, 61
82, 79, 71, 63
81, 85, 80, 88
75, 69, 81, 89
78, 73, 75, 91
72, 74, 80, 82
72, 94, 76, 64
76, 89, 82, 65
76, 73, 81, 100
79, 74, 85, 71
73, 71, 88, 82
73, 71, 85, 97
70, 77, 79, 73
74, 86, 77, 70
73, 75, 78, 68
85, 80, 71, 85
83, 82, 73, 70
72, 85, 89, 89
80, 82, 79, 72
76, 82, 80, 72
78, 81, 84, 72
80, 81, 83, 77
79, 64, 87, 89
70, 78, 70, 71
74, 70, 72, 63
76, 71, 80, 85
83, 80, 75, 82
77, 77, 90, 73
66, 96, 82, 63
65, 88, 71, 82
75, 73, 70, 81
76, 87, 88, 85
78, 82, 76, 80
89, 83, 81, 72
78, 81, 78, 85
84, 73, 92, 74
73, 64, 74, 63
96, 73, 78, 96
74, 69, 97, 77
88, 65, 78, 79
94, 78, 83, 64
67, 84, 77, 79
82, 77, 79, 70
73, 79, 67, 73
84, 86, 69, 76
89, 74, 75, 72
63, 72, 66, 80
76, 78, 76, 84
98, 75, 63, 87
87, 77, 71, 71
82, 90, 83, 80
85, 75, 83, 87
80, 80, 66, 67
90, 82, 72, 74
94, 58, 75, 69
85, 74, 77, 74
63, 96, 69, 77
91, 60, 80, 79
78, 71, 77, 93
78, 72, 80, 79
70, 61, 75, 107
94, 83, 82, 83
67, 81, 81, 80
67, 83, 82, 90
83, 83, 82, 69
89, 72, 93, 69
71, 71, 78, 72
87, 76, 64, 86
63, 65, 79, 73
71, 84, 88, 64
95, 75, 78, 84
74, 85, 95, 74
95, 89, 75, 83
79, 85, 73, 88
93, 79, 81, 75
82, 95, 67, 92
82, 78, 73, 78
78, 89, 97, 83
75, 70, 95, 74
83, 93, 73, 80
76, 82, 86, 68
75, 80, 89, 93
71, 103, 86, 82
82, 80, 69, 82
64, 61, 63, 87
73, 75, 83, 83
86, 83, 95, 79
71, 90, 82, 97
76, 87, 76, 84
73, 71, 74, 65
76, 66, 75, 88
89, 69, 89, 64
71, 86, 65, 77
77, 80, 93, 68
82, 91, 77, 77
91, 73, 94, 75
86, 101, 75, 93
64, 67, 86, 63
93, 89, 65, 100
85, 59, 76, 86
80, 76, 83, 71
85, 76, 69, 69
70, 72, 84, 61
73, 82, 82, 80
79, 88, 78, 90
74, 66, 75, 83
71, 89, 68, 81
94, 81, 81, 67
82, 73, 72, 101
64, 92, 88, 87
96, 88, 80, 83
60, 75, 86, 87
72, 85, 75, 93
75, 76, 82, 99
81, 89, 80, 60
81, 75, 87, 72
67, 91, 65, 88
89, 74, 81, 82
76, 69, 75, 79
83, 80, 86, 83
95, 74, 85, 66
76, 79, 87, 91
95, 68, 73, 93
74, 58, 71, 68
88, 81, 76, 80
72, 83, 76, 77
75, 90, 74, 82
80, 93, 94, 89
70, 92, 92, 80
96, 81, 98, 77
87, 71, 86, 91
73, 78, 70, 72
73, 72, 86, 85
84, 79, 88, 68
84, 80, 77, 85
69, 87, 68, 86
86, 84, 74, 85
83, 81, 72, 85
84, 87, 78, 73
75, 85, 64, 84
90, 86, 80, 80
82, 87, 78, 78
92, 69, 75, 74
92, 64, 78, 89
66, 86, 85, 67
77, 70, 96, 92
73, 73, 82, 70
88, 90, 88, 77
68, 81, 92, 100
91, 71, 79, 77
86, 107, 92, 86
78, 88, 79, 81
73, 90, 86, 71
89, 95, 92, 79
76, 87, 80, 87
83, 86, 81, 81
88, 85, 91, 77
94, 86, 90, 68
72, 84, 72, 91
72, 96, 89, 77
91, 76, 71, 70
87, 97, 88, 70
85, 65, 89, 94
82, 75, 93, 82
78, 81, 87, 68
70, 78, 84, 80
75, 79, 82, 76
73, 83, 98, 81
89, 92, 86, 86
80, 74, 77, 82
88, 93, 85, 82
71, 75, 90, 66
81, 96, 83, 68
89, 70, 86, 78
84, 82, 93, 90
76, 93, 96, 76
69, 63, 77, 91
84, 98, 98, 86
78, 65, 75, 88
76, 80, 82, 79
77, 82, 80, 94
93, 68, 95, 79
75, 93, 77, 78
72, 88, 73, 95
101, 76, 65, 93
91, 84, 69, 78
83, 88, 87, 77
89, 74, 78, 90
78, 75, 81, 72
86, 71, 80, 84
86, 82, 76, 91
98, 79, 83, 95
72, 80, 93, 67
88, 89, 72, 89
79, 87, 94, 89
67, 73, 99, 81
81, 89, 74, 84
92, 86, 80, 102
73, 84, 90, 90
74, 91, 77, 105
95, 87, 101, 102
87, 79, 90, 106
101, 99, 97, 91
116, 94, 89, 88
115, 115, 91, 100
92, 118, 103, 109
102, 109, 93, 104
119, 97, 102, 124
100, 132, 111, 109
108, 125, 111, 110
99, 103, 107, 104
99, 107, 104, 110
103, 100, 103, 91
105, 103, 104, 94
96, 108, 91, 77
98, 101, 92, 76
87, 77, 88, 104
100, 94, 87, 90
101, 93, 83, 90
77, 90, 84, 96
79, 97, 79, 94
75, 74, 100, 92
67, 88, 82, 74
76, 78, 74, 74
84, 86, 88, 91
84, 75, 90, 88
78, 93, 75, 73
79, 89, 76, 90
80, 81, 64, 76
73, 84, 81, 81
82, 77, 92, 80
86, 85, 74, 69
95, 76, 84, 66
71, 78, 87, 94
84, 79, 83, 84
86, 81, 91, 95
82, 109, 78, 73
99, 80, 86, 81
59, 84, 76, 86
78, 60, 90, 90
80, 84, 69, 87
79, 87, 76, 68
84, 85, 78, 94
95, 95, 79, 68
74, 83, 72, 78
57, 78, 80, 81
95, 102, 100, 87
92, 100, 87, 78
88, 94, 84, 91
77, 85, 74, 65
99, 70, 89, 76
81, 73, 79, 92
101, 87, 77, 91
79, 93, 92, 96
84, 87, 88, 95
80, 88, 85, 71
97, 91, 73, 76
96, 96, 86, 92
95, 79, 78, 75
75, 85, 80, 104
84, 97, 93, 73
70, 87, 105, 84
91, 74, 95, 97
88, 93, 78, 70
78, 82, 84, 85
74, 93, 99, 84
92, 80, 82, 84
88, 87, 99, 75
84, 84, 79, 81
93, 77, 77, 89
73, 76, 79, 76
76, 98, 86, 82
83, 67, 92, 84
92, 106, 100, 83
84, 74, 81, 93
82, 67, 86, 81
74, 76, 90, 74
65, 85, 79, 86
81, 86, 82, 67
77, 74, 66, 100
88, 89, 95, 80
72, 74, 87, 85
92, 79, 80, 91
71, 78, 70, 99
75, 67, 87, 83
77, 91, 70, 101
76, 89, 93, 79
77, 94, 76, 70
91, 108, 100, 82
82, 90, 75, 86
84, 89, 88, 76
77, 92, 86, 78
87, 78, 75, 71
74, 95, 81, 62
77, 83, 76, 99
66, 86, 82, 91
86, 97, 82, 86
59, 87, 91, 84
80, 82, 85, 91
90, 80, 97, 79
93, 76, 85, 86
87, 99, 80, 85
85, 75, 91, 76
74, 70, 86, 86
75, 91, 81, 76
86, 87, 84, 71
80, 93, 76, 85
101, 87, 83, 83
93, 70, 80, 108
96, 89, 93, 76
90, 83, 81, 83
90, 73, 76, 87
88, 73, 81, 88
97, 95, 75, 110
79, 69, 78, 83
70, 76, 86, 102
75, 87, 85, 89
81, 95, 89, 80
85, 76, 72, 67
61, 81, 76, 85
88, 74, 92, 86
78, 100, 92, 77
95, 93, 86, 82
83, 88, 88, 100
74
*END

*EOF
