*TYPE		=  Raw
*CLASS		=  ASCII CLASS
*SAMPLE		=   
*COMMENT	=   
*FNAME		=  1-5_2-Theta_Omega.asc
*DATE		=  11-Dec-25 15:27

*GROUP_COUNT	=  1
*GONIO		=  SmartLab(In-plane), 0.000000
*ATTACHMENT	=  Z-Phi Stage
*ASC		=  0, 0, 0.000000, 0.000000
*I_MONOCHRO	=  Soller_slit_5.0deg, 0.000000
*FILTER		=  None
*C_MONOCHRO	=  None, 0.000000
*SLIT_NAME	=  0, Incident slit
*SLIT_NAME	=  1, Receiving slit # 1
*SLIT_NAME	=  2, Receiving slit # 2
*COUNTER	=  SC-70, 0
*POS_FORMAT	=  0
*SCAN_AXIS	=  2Theta/Omega
*MEAS_MODE	=  Continuous Scanning
*TARGET		=  29
*XRAY_CHAR	=  K-ALPHA
*WAVE_LENGTH1	=  1.54059
*WAVE_LENGTH2	=  1.54441
*THICKNESS	=  0, 0.000000
*MU		=  0, 0.000000
*SCAN_MODE	=  2Theta/Omega
*SPEED_DIM	=  sec./step
*XUNIT		=  deg.
*YUNIT		=  counts
*SCALE_MODE	=  1
*REP_COUNT	=  0
*SE_COUNT	=  0
*STD_MATERIAL	=  Unknown, Unknown, 0.000000, 0.000000, 0.000000, 0.000000, 0.000000, 0.000000
*LATT_CONS	=  0, Unknown, Unknown, 0.000000, 0.000000, 0.000000, 0.000000, 0.000000, 0.000000
*SEC_COUNT	=  1
*TSPEC_SIZE	=  0
*EXTRA_SIZE	=  0
*MEMO		=   

*BEGIN
*GROUP		=  0
*START		=  20
*STOP		=  80
*STEP		=  0.01
*OFFSET		=  0.000000
*SPEED		=  0.05
*SLIT_SPEC	=  0, 1.000mm, 1, 0.000000
*SLIT_SPEC	=  1, 1.000mm, 1, 0.000000
*SLIT_SPEC	=  2, 1.000mm, 1, 0.000000
*KV		=  40
*MA		=  100
*LOW		=  0.000000
*HIGH		=  0.000000
*CTEMPER	=  0, 0.000000
*CTEMPER	=  1, 0.000000
*CTEMPER	=  2, 0.000000
*PAREX		=  0, 0.000000
*PAREX		=  1, 0.000000
*PAREX		=  2, 0.000000
*PAREX		=  3, 0.000000
*PAREX		=  4, 0.000000
*PAREX		=  5, 0.000000
*PAREX		=  6, 0.000000
*PAREX		=  7, 0.000000
*PAREX		=  8, 0.000000
*PAREX		=  9, 0.000000
*PAREX		=  10, 0.000000
*PAREX		=  11, 0.000000
*PAREX		=  12, 0.000000
*PAREX		=  13, 0.000000
*PAREX		=  14, 0.000000
*PAREX		=  15, 0.000000
*FULL_SCALE	=  5880
*INDEX		=  0, 0, 0
*COUNT		=  6001
92, 70, 83, 57
84, 87, 82, 91
58, 70, 86, 84
91, 79, 91, 99
92, 73, 66, 72
78, 80, 67, 87
86, 90, 83, 98
95, 58, 68, 85
98, 73, 64, 80
67, 85, 93, 87
79, 77, 81, 92
76, 87, 85, 87
85, 71, 88, 70
74, 73, 70, 72
78, 86, 87, 75
90, 80, 68, 74
85, 72, 77, 96
67, 107, 95, 91
71, 87, 81, 90
73, 79, 78, 87
82, 85, 96, 92
72, 79, 65, 74
89, 79, 92, 78
73, 69, 77, 85
83, 70, 85, 90
78, 80, 87, 94
76, 73, 100, 68
86, 90, 86, 74
75, 74, 74, 83
88, 87, 87, 71
92, 68, 93, 73
67, 72, 93, 84
88, 89, 82, 74
89, 87, 86, 84
69, 77, 86, 85
74, 87, 83, 91
58, 117, 82, 82
74, 66, 69, 98
70, 86, 65, 71
83, 86, 68, 86
77, 76, 74, 73
76, 84, 72, 85
74, 72, 70, 78
89, 77, 70, 75
74, 85, 64, 69
78, 75, 87, 87
65, 84, 94, 92
72, 83, 93, 72
81, 75, 75, 89
75, 97, 71, 58
75, 84, 73, 77
63, 79, 67, 100
73, 76, 79, 93
83, 96, 75, 76
80, 83, 80, 82
70, 99, 78, 66
75, 85, 88, 84
70, 76, 66, 78
93, 56, 92, 84
63, 88, 65, 77
76, 80, 101, 89
72, 81, 79, 89
88, 60, 92, 88
92, 72, 87, 76
76, 96, 79, 79
67, 94, 71, 83
78, 77, 100, 93
100, 83, 81, 72
89, 91, 73, 77
103, 71, 76, 83
77, 95, 77, 92
75, 84, 75, 81
57, 72, 76, 74
105, 84, 63, 97
77, 73, 76, 101
76, 94, 71, 69
90, 75, 67, 87
66, 74, 84, 79
77, 70, 70, 97
70, 95, 93, 88
86, 87, 95, 101
86, 79, 94, 77
94, 73, 82, 82
80, 70, 73, 83
70, 76, 90, 84
86, 89, 76, 74
89, 72, 79, 81
77, 55, 88, 81
92, 67, 86, 87
71, 79, 71, 70
88, 76, 86, 81
84, 88, 89, 81
87, 94, 90, 81
87, 64, 86, 71
69, 101, 80, 88
78, 77, 71, 81
84, 68, 91, 75
95, 87, 94, 83
88, 95, 88, 64
86, 68, 73, 69
57, 75, 88, 89
92, 87, 72, 71
80, 80, 67, 74
88, 82, 70, 67
71, 73, 75, 78
87, 83, 87, 80
88, 83, 97, 80
88, 69, 74, 77
60, 77, 79, 93
72, 91, 62, 77
73, 74, 81, 87
91, 83, 60, 76
77, 61, 78, 77
76, 73, 106, 81
88, 83, 73, 75
76, 73, 81, 82
66, 74, 91, 83
72, 65, 78, 89
84, 80, 78, 92
81, 78, 85, 88
82, 68, 74, 65
99, 84, 81, 67
84, 82, 67, 86
73, 78, 80, 68
66, 77, 104, 94
71, 81, 86, 83
86, 85, 71, 86
83, 68, 94, 92
91, 69, 85, 75
69, 83, 81, 77
70, 77, 75, 69
82, 86, 85, 86
70, 108, 89, 99
84, 69, 90, 71
75, 78, 71, 91
81, 63, 75, 87
77, 88, 72, 79
76, 66, 72, 81
91, 74, 58, 67
77, 81, 71, 77
77, 83, 73, 79
80, 75, 82, 75
85, 73, 66, 77
88, 75, 90, 73
82, 70, 75, 105
77, 87, 85, 60
94, 67, 88, 81
83, 78, 72, 69
98, 96, 81, 79
71, 79, 88, 70
76, 71, 102, 80
79, 97, 81, 78
90, 84, 86, 65
82, 75, 87, 73
63, 86, 92, 93
88, 78, 91, 92
68, 76, 66, 67
79, 80, 80, 92
79, 77, 81, 88
73, 65, 82, 96
88, 88, 69, 81
75, 83, 88, 69
82, 75, 84, 91
96, 75, 81, 90
79, 76, 73, 99
84, 80, 80, 72
83, 83, 64, 89
84, 84, 89, 76
104, 64, 90, 88
85, 78, 75, 69
82, 90, 70, 67
79, 90, 91, 79
78, 78, 79, 85
67, 82, 70, 81
77, 74, 82, 84
91, 114, 76, 73
75, 72, 73, 89
70, 81, 84, 77
79, 83, 85, 87
87, 98, 82, 72
71, 86, 65, 92
77, 75, 83, 80
84, 89, 93, 82
89, 63, 67, 67
67, 98, 91, 84
73, 86, 78, 92
67, 63, 75, 63
91, 82, 76, 77
78, 85, 67, 82
81, 87, 80, 78
77, 91, 76, 86
74, 67, 78, 93
76, 74, 90, 80
82, 73, 86, 71
62, 70, 58, 74
79, 71, 71, 82
83, 92, 86, 81
89, 72, 77, 76
78, 78, 92, 89
91, 68, 70, 71
82, 82, 83, 87
74, 92, 80, 75
60, 77, 85, 86
88, 80, 81, 83
83, 71, 75, 69
76, 74, 76, 81
75, 72, 86, 73
80, 88, 81, 92
83, 72, 62, 66
85, 80, 94, 66
79, 82, 64, 72
89, 95, 65, 68
92, 72, 79, 73
89, 102, 73, 94
68, 76, 66, 77
74, 83, 81, 100
84, 85, 82, 74
81, 65, 67, 78
88, 93, 77, 80
70, 61, 91, 63
76, 84, 76, 80
65, 73, 73, 78
79, 65, 75, 72
70, 76, 58, 84
84, 72, 87, 75
90, 71, 73, 76
78, 73, 62, 79
72, 72, 53, 67
85, 73, 83, 79
87, 86, 90, 79
76, 80, 83, 72
70, 77, 71, 95
78, 100, 78, 61
76, 94, 83, 74
89, 75, 84, 87
90, 87, 88, 68
91, 88, 70, 78
92, 53, 75, 83
70, 61, 69, 93
83, 75, 71, 85
66, 79, 79, 67
83, 87, 66, 77
72, 85, 81, 89
78, 89, 72, 80
84, 79, 69, 85
70, 74, 85, 74
63, 83, 77, 78
81, 75, 79, 82
86, 69, 71, 82
87, 90, 63, 79
66, 75, 86, 85
75, 86, 79, 79
80, 83, 80, 63
77, 59, 90, 80
75, 92, 60, 77
84, 80, 103, 77
88, 88, 74, 80
80, 82, 76, 93
72, 63, 91, 78
85, 95, 84, 77
69, 89, 75, 77
80, 57, 83, 84
75, 91, 73, 72
84, 64, 83, 71
79, 63, 73, 67
66, 65, 73, 71
86, 76, 76, 70
85, 78, 102, 66
79, 77, 96, 85
71, 92, 56, 80
69, 74, 73, 83
83, 86, 75, 88
69, 83, 68, 79
89, 67, 79, 82
78, 88, 86, 86
76, 66, 70, 93
97, 76, 78, 75
67, 72, 78, 73
77, 88, 95, 76
74, 86, 64, 86
89, 92, 65, 73
81, 79, 86, 73
87, 80, 74, 87
84, 71, 67, 86
73, 79, 82, 84
80, 88, 68, 69
76, 71, 79, 81
76, 89, 80, 71
88, 74, 78, 85
94, 68, 78, 91
81, 78, 81, 91
85, 65, 84, 86
66, 68, 88, 74
66, 75, 83, 62
72, 83, 66, 67
78, 77, 77, 74
75, 75, 60, 73
78, 92, 71, 99
70, 84, 80, 71
76, 89, 77, 81
78, 87, 83, 98
79, 73, 83, 79
83, 91, 88, 61
83, 75, 64, 80
78, 96, 71, 71
91, 85, 94, 72
88, 63, 79, 74
75, 72, 85, 76
73, 73, 74, 87
73, 72, 72, 68
72, 99, 65, 74
77, 92, 78, 78
69, 63, 78, 84
80, 80, 69, 86
75, 69, 80, 68
69, 85, 88, 89
71, 73, 71, 69
83, 80, 73, 87
83, 94, 77, 72
70, 90, 61, 73
77, 90, 77, 70
84, 74, 66, 89
81, 71, 85, 64
79, 77, 79, 73
67, 71, 78, 72
71, 65, 83, 67
72, 62, 99, 84
81, 90, 56, 78
80, 93, 66, 75
74, 79, 74, 58
81, 63, 81, 61
61, 67, 76, 86
87, 89, 85, 82
76, 74, 77, 79
86, 75, 78, 75
100, 67, 84, 75
64, 72, 77, 88
79, 88, 77, 79
76, 76, 84, 63
78, 81, 89, 97
90, 68, 83, 86
76, 77, 72, 69
77, 73, 84, 75
73, 74, 76, 78
65, 93, 90, 70
73, 76, 84, 68
63, 64, 96, 98
87, 82, 66, 75
80, 75, 68, 72
78, 75, 76, 79
72, 81, 72, 77
83, 89, 75, 81
86, 68, 96, 80
71, 77, 78, 58
68, 87, 88, 66
57, 82, 78, 87
81, 74, 90, 62
84, 76, 90, 79
91, 80, 73, 66
75, 76, 81, 84
81, 86, 72, 86
78, 80, 69, 89
82, 83, 73, 97
69, 78, 98, 78
51, 72, 66, 74
73, 72, 80, 97
84, 55, 73, 57
58, 81, 72, 71
68, 79, 98, 68
85, 74, 78, 77
77, 91, 82, 87
85, 86, 68, 73
73, 82, 80, 85
89, 66, 84, 86
78, 87, 68, 85
81, 75, 80, 76
71, 83, 67, 79
71, 90, 93, 76
69, 63, 74, 73
83, 92, 77, 73
75, 72, 81, 77
79, 82, 84, 81
71, 69, 87, 72
78, 90, 74, 64
76, 82, 80, 71
73, 80, 77, 66
75, 80, 78, 65
76, 73, 75, 81
75, 96, 91, 74
68, 70, 89, 78
87, 74, 85, 82
79, 101, 70, 69
67, 65, 64, 76
74, 75, 101, 79
64, 68, 79, 92
73, 68, 85, 91
92, 65, 85, 78
75, 80, 90, 90
70, 80, 60, 79
54, 68, 79, 78
66, 82, 77, 71
79, 71, 78, 84
91, 91, 71, 87
87, 83, 69, 109
83, 86, 83, 79
79, 64, 78, 81
81, 76, 84, 79
81, 80, 96, 69
70, 81, 76, 73
75, 76, 94, 89
79, 95, 76, 86
86, 70, 89, 88
82, 62, 81, 81
67, 75, 70, 73
80, 96, 84, 78
76, 69, 92, 96
69, 87, 80, 67
85, 68, 83, 80
76, 96, 85, 81
80, 88, 68, 76
79, 77, 91, 87
71, 68, 63, 68
82, 86, 73, 92
90, 82, 71, 95
70, 66, 78, 97
82, 65, 84, 84
67, 87, 61, 76
66, 75, 85, 62
62, 78, 84, 82
84, 73, 81, 96
60, 74, 82, 81
76, 69, 68, 73
74, 78, 70, 66
75, 82, 69, 72
62, 61, 82, 89
73, 79, 75, 66
84, 73, 81, 84
65, 68, 73, 62
85, 84, 85, 89
94, 89, 77, 72
66, 71, 70, 73
79, 72, 75, 80
80, 77, 87, 70
73, 94, 58, 92
81, 64, 73, 98
66, 89, 72, 78
90, 74, 75, 96
84, 79, 79, 61
77, 80, 66, 60
75, 81, 72, 74
69, 79, 72, 80
84, 78, 83, 75
72, 84, 85, 90
95, 94, 92, 79
94, 62, 72, 78
86, 84, 77, 88
78, 68, 83, 76
79, 65, 66, 84
86, 66, 90, 81
69, 69, 79, 90
80, 98, 86, 79
83, 79, 73, 91
80, 85, 79, 88
70, 94, 69, 88
68, 93, 70, 80
69, 57, 64, 84
77, 91, 69, 72
85, 84, 75, 81
92, 89, 78, 66
72, 90, 74, 84
72, 76, 64, 87
91, 80, 76, 83
77, 84, 91, 66
73, 80, 71, 82
82, 89, 85, 80
77, 63, 84, 81
80, 76, 67, 83
83, 82, 86, 73
75, 90, 64, 81
66, 86, 91, 88
76, 90, 82, 80
85, 78, 75, 79
83, 75, 84, 82
63, 71, 80, 81
92, 56, 72, 73
78, 79, 72, 72
83, 77, 65, 90
92, 79, 92, 75
83, 79, 70, 79
81, 76, 67, 83
90, 88, 85, 84
92, 77, 78, 102
79, 86, 83, 72
72, 97, 59, 80
92, 67, 64, 80
68, 71, 83, 89
91, 65, 79, 81
73, 71, 82, 88
78, 95, 86, 85
79, 82, 68, 98
75, 77, 73, 83
80, 87, 73, 93
86, 75, 87, 86
77, 62, 76, 97
86, 81, 85, 71
104, 69, 60, 69
91, 73, 74, 65
86, 82, 82, 82
79, 87, 77, 75
83, 76, 63, 59
90, 92, 74, 60
65, 67, 89, 83
77, 84, 75, 92
87, 80, 82, 73
85, 81, 78, 79
77, 71, 76, 83
84, 80, 69, 75
70, 66, 64, 68
65, 85, 76, 94
77, 94, 68, 75
89, 71, 87, 70
70, 83, 77, 88
78, 83, 73, 86
84, 75, 73, 83
70, 74, 72, 88
86, 66, 80, 82
69, 75, 98, 78
87, 70, 85, 75
73, 76, 72, 94
85, 91, 86, 68
75, 90, 83, 88
81, 94, 87, 84
75, 93, 92, 86
81, 73, 72, 87
73, 77, 83, 80
75, 77, 85, 79
68, 78, 74, 102
74, 83, 79, 74
83, 88, 96, 87
99, 85, 85, 85
77, 81, 79, 73
91, 72, 95, 76
84, 83, 83, 76
94, 94, 90, 60
89, 73, 69, 88
96, 88, 78, 89
90, 86, 79, 77
92, 85, 87, 85
104, 86, 87, 81
86, 77, 80, 76
86, 78, 96, 87
86, 87, 83, 73
81, 91, 84, 83
92, 78, 88, 75
83, 75, 79, 85
85, 83, 62, 85
90, 93, 83, 84
78, 83, 84, 93
73, 75, 88, 78
93, 103, 92, 93
83, 85, 91, 73
100, 95, 89, 74
67, 91, 92, 82
80, 94, 80, 93
85, 83, 82, 77
77, 86, 77, 87
88, 88, 90, 67
95, 89, 108, 85
79, 83, 81, 78
70, 74, 64, 84
85, 77, 81, 94
84, 58, 73, 71
94, 90, 72, 83
64, 82, 81, 88
91, 89, 78, 81
68, 86, 90, 72
82, 88, 102, 104
86, 75, 96, 82
78, 82, 96, 86
73, 82, 82, 77
84, 88, 95, 95
87, 82, 86, 93
90, 78, 63, 87
85, 83, 105, 93
89, 84, 79, 86
95, 77, 76, 102
93, 95, 88, 93
73, 96, 75, 95
88, 101, 81, 99
93, 103, 92, 82
104, 98, 105, 98
119, 129, 98, 125
122, 149, 137, 155
156, 159, 202, 178
171, 161, 171, 210
198, 205, 213, 229
225, 229, 208, 212
191, 193, 176, 175
188, 199, 182, 210
170, 181, 190, 178
199, 185, 178, 199
178, 167, 213, 153
180, 183, 181, 195
169, 192, 196, 178
190, 192, 201, 204
204, 203, 204, 240
212, 225, 221, 221
210, 226, 241, 223
245, 235, 214, 230
224, 216, 222, 227
229, 182, 192, 203
163, 179, 195, 166
167, 165, 151, 151
148, 138, 124, 133
122, 110, 120, 108
113, 117, 118, 125
103, 86, 109, 99
104, 87, 101, 89
90, 80, 87, 82
87, 89, 96, 87
90, 97, 73, 91
92, 76, 89, 81
87, 90, 88, 77
85, 105, 90, 84
77, 86, 78, 93
93, 88, 91, 82
81, 87, 70, 94
70, 89, 84, 69
97, 76, 78, 86
85, 76, 80, 81
104, 83, 79, 89
88, 73, 81, 71
81, 84, 83, 96
70, 89, 74, 82
83, 73, 88, 99
60, 90, 97, 74
94, 91, 91, 91
86, 95, 72, 75
88, 83, 72, 92
82, 87, 85, 80
86, 90, 75, 81
86, 73, 84, 82
80, 92, 76, 71
86, 82, 80, 80
86, 80, 91, 68
69, 81, 75, 96
91, 76, 94, 92
80, 88, 85, 74
80, 75, 78, 96
77, 76, 83, 71
78, 88, 75, 70
61, 90, 82, 86
74, 84, 85, 93
72, 58, 88, 93
74, 73, 86, 89
93, 79, 77, 77
89, 101, 63, 71
78, 72, 79, 88
77, 76, 89, 81
91, 57, 73, 82
83, 86, 79, 77
93, 77, 63, 67
90, 78, 108, 90
83, 87, 79, 62
68, 72, 77, 96
71, 84, 94, 80
89, 70, 94, 89
95, 74, 78, 70
74, 75, 85, 101
80, 72, 83, 62
95, 93, 79, 91
78, 81, 89, 78
90, 67, 81, 83
60, 93, 83, 89
86, 71, 82, 67
74, 81, 67, 84
90, 93, 64, 76
98, 79, 81, 86
85, 84, 91, 87
76, 75, 66, 84
92, 87, 68, 77
81, 84, 81, 89
84, 77, 79, 78
67, 75, 80, 87
75, 86, 79, 91
84, 84, 80, 78
76, 77, 74, 81
65, 90, 72, 88
97, 78, 69, 86
74, 76, 79, 69
90, 80, 102, 73
69, 85, 78, 62
88, 59, 72, 79
78, 75, 65, 104
79, 83, 75, 84
72, 81, 86, 73
55, 94, 74, 72
86, 85, 78, 77
77, 77, 75, 69
80, 78, 78, 83
78, 106, 75, 84
81, 69, 82, 81
73, 91, 86, 83
71, 91, 76, 81
80, 92, 60, 79
92, 75, 81, 98
82, 84, 83, 76
91, 85, 68, 80
73, 88, 92, 83
83, 69, 83, 83
69, 90, 61, 64
92, 80, 72, 103
77, 84, 83, 76
68, 80, 67, 74
92, 96, 85, 82
71, 72, 75, 94
100, 86, 75, 89
73, 76, 86, 74
79, 82, 87, 96
67, 71, 76, 90
80, 82, 55, 72
73, 79, 68, 66
64, 81, 88, 69
67, 70, 65, 74
86, 86, 74, 81
74, 76, 71, 94
90, 80, 76, 90
74, 105, 78, 80
67, 89, 88, 75
103, 80, 76, 81
68, 78, 78, 89
70, 75, 83, 102
93, 77, 60, 75
82, 87, 89, 66
60, 68, 78, 77
79, 90, 87, 82
74, 77, 88, 83
85, 82, 83, 93
70, 81, 71, 81
75, 81, 95, 69
88, 87, 72, 91
85, 82, 74, 59
66, 82, 69, 81
87, 85, 79, 68
95, 93, 88, 88
71, 93, 69, 67
80, 88, 86, 75
81, 102, 79, 77
80, 63, 79, 79
79, 93, 63, 78
72, 82, 72, 78
93, 84, 63, 80
63, 72, 88, 82
81, 69, 78, 76
69, 71, 79, 75
87, 93, 84, 84
76, 73, 94, 63
70, 76, 75, 78
105, 96, 70, 76
86, 61, 73, 81
81, 76, 80, 89
88, 84, 71, 75
97, 72, 67, 61
91, 84, 83, 80
66, 80, 60, 76
64, 74, 68, 82
78, 83, 75, 86
85, 78, 75, 82
69, 85, 84, 96
91, 95, 77, 74
91, 60, 74, 83
79, 61, 86, 87
90, 87, 81, 92
81, 85, 93, 84
80, 81, 86, 88
87, 92, 87, 67
66, 91, 66, 87
82, 67, 84, 82
83, 99, 67, 62
84, 84, 75, 80
101, 82, 77, 75
80, 82, 93, 85
79, 92, 81, 78
76, 92, 85, 83
65, 94, 82, 86
94, 77, 65, 68
91, 71, 87, 83
81, 91, 79, 93
63, 82, 90, 79
68, 70, 84, 87
92, 89, 85, 90
81, 82, 84, 83
77, 79, 87, 78
76, 68, 91, 93
80, 79, 66, 80
75, 93, 68, 79
77, 96, 76, 76
75, 71, 76, 80
76, 71, 71, 70
84, 66, 86, 83
82, 80, 79, 82
81, 90, 94, 77
69, 82, 76, 99
78, 72, 79, 100
79, 84, 87, 83
61, 79, 72, 80
71, 81, 77, 76
84, 79, 91, 78
89, 69, 81, 73
105, 68, 74, 76
72, 91, 90, 75
86, 87, 81, 61
81, 76, 83, 73
67, 87, 90, 72
66, 96, 82, 79
81, 65, 81, 71
69, 92, 77, 81
73, 82, 79, 79
87, 71, 75, 76
80, 71, 86, 82
80, 81, 77, 83
84, 73, 77, 117
80, 78, 77, 65
86, 87, 75, 70
87, 87, 78, 87
71, 77, 84, 73
94, 97, 78, 75
83, 94, 78, 85
81, 75, 80, 84
81, 87, 79, 75
108, 86, 83, 81
64, 91, 95, 82
79, 77, 70, 73
82, 74, 72, 77
89, 110, 73, 80
91, 74, 84, 86
75, 88, 77, 80
86, 69, 86, 88
82, 86, 91, 80
75, 71, 92, 92
85, 78, 80, 83
77, 75, 83, 82
84, 80, 88, 62
83, 81, 77, 81
98, 76, 88, 81
83, 96, 67, 76
89, 79, 86, 81
87, 87, 82, 88
72, 76, 61, 85
85, 66, 67, 80
94, 89, 87, 75
76, 99, 83, 74
75, 70, 68, 84
77, 88, 88, 91
80, 88, 76, 73
85, 66, 90, 80
96, 74, 79, 82
79, 79, 81, 81
74, 81, 65, 76
93, 68, 79, 73
83, 82, 70, 68
84, 92, 76, 88
83, 86, 75, 83
82, 87, 86, 69
78, 68, 90, 96
74, 89, 87, 85
75, 82, 82, 90
87, 89, 90, 82
87, 63, 59, 87
77, 61, 72, 79
76, 64, 87, 81
62, 81, 83, 83
84, 79, 82, 71
84, 82, 90, 73
74, 76, 68, 87
86, 83, 87, 78
72, 80, 86, 80
87, 75, 87, 83
67, 78, 68, 83
82, 66, 93, 91
77, 72, 77, 78
77, 64, 81, 75
85, 64, 83, 77
74, 70, 96, 67
87, 75, 97, 70
80, 74, 64, 82
82, 62, 82, 80
79, 78, 93, 98
87, 68, 90, 86
80, 83, 85, 94
70, 81, 91, 73
86, 76, 77, 72
74, 88, 73, 76
78, 86, 79, 90
97, 79, 81, 97
82, 79, 68, 82
90, 83, 85, 102
85, 80, 70, 63
84, 84, 83, 72
73, 83, 71, 93
82, 96, 83, 63
80, 81, 75, 78
86, 71, 72, 79
83, 76, 84, 78
91, 64, 74, 80
73, 78, 83, 86
76, 77, 67, 93
87, 72, 103, 60
93, 83, 80, 96
82, 83, 83, 76
81, 83, 84, 74
80, 82, 89, 95
78, 77, 81, 78
68, 71, 87, 74
90, 77, 90, 81
84, 87, 94, 98
75, 91, 83, 98
81, 78, 77, 79
67, 72, 88, 62
76, 70, 88, 85
81, 88, 74, 102
85, 85, 70, 80
76, 85, 90, 70
85, 83, 70, 78
78, 83, 87, 82
69, 71, 86, 82
71, 85, 87, 79
81, 74, 84, 91
76, 74, 73, 80
76, 83, 68, 81
90, 89, 95, 88
69, 88, 83, 84
82, 81, 89, 77
99, 82, 79, 80
76, 76, 63, 85
97, 83, 86, 74
80, 76, 90, 88
73, 75, 108, 83
77, 87, 91, 71
93, 83, 72, 84
90, 86, 83, 85
68, 99, 85, 73
69, 76, 71, 79
102, 94, 83, 86
74, 102, 67, 80
71, 82, 74, 95
89, 109, 85, 74
82, 74, 68, 68
88, 78, 91, 81
80, 76, 79, 84
95, 80, 95, 86
86, 93, 87, 66
82, 81, 73, 78
92, 56, 87, 82
78, 91, 74, 84
82, 81, 87, 90
78, 82, 76, 80
83, 79, 79, 73
68, 104, 84, 75
84, 80, 65, 71
99, 92, 101, 79
78, 74, 73, 81
92, 100, 77, 74
95, 91, 83, 74
79, 79, 84, 79
75, 101, 70, 81
86, 82, 77, 79
83, 64, 74, 88
83, 82, 91, 78
75, 75, 68, 84
95, 84, 93, 83
94, 68, 85, 78
69, 88, 93, 69
98, 77, 73, 79
87, 94, 70, 98
84, 89, 88, 77
77, 75, 72, 87
103, 88, 79, 87
76, 66, 80, 97
79, 72, 96, 92
83, 89, 71, 93
78, 104, 73, 94
76, 83, 68, 91
79, 75, 75, 80
73, 84, 78, 100
75, 81, 90, 89
90, 70, 85, 79
84, 81, 68, 91
81, 72, 84, 77
75, 84, 87, 76
75, 62, 102, 82
75, 87, 83, 83
96, 78, 74, 84
81, 84, 75, 66
85, 86, 85, 66
94, 100, 78, 87
84, 79, 67, 83
80, 66, 91, 75
90, 62, 82, 85
79, 83, 68, 92
69, 81, 70, 65
73, 89, 96, 77
87, 91, 75, 83
76, 70, 84, 102
90, 75, 76, 83
91, 73, 80, 74
96, 75, 85, 96
76, 96, 92, 79
95, 75, 92, 81
84, 82, 85, 85
88, 69, 67, 92
81, 77, 75, 67
89, 84, 80, 88
77, 84, 90, 83
70, 102, 80, 64
76, 87, 88, 80
87, 81, 74, 101
78, 75, 76, 74
63, 77, 95, 83
84, 87, 92, 81
74, 81, 90, 98
80, 69, 93, 79
91, 75, 93, 68
102, 97, 80, 78
78, 87, 80, 77
65, 74, 77, 76
95, 91, 92, 95
85, 95, 76, 68
95, 85, 87, 74
86, 84, 81, 78
78, 89, 101, 82
79, 81, 68, 87
80, 84, 81, 72
87, 84, 92, 81
104, 78, 91, 83
86, 87, 80, 70
104, 97, 108, 81
98, 96, 79, 95
74, 76, 82, 92
68, 71, 98, 88
84, 79, 86, 95
84, 91, 92, 71
83, 81, 96, 78
88, 84, 80, 101
76, 79, 80, 76
77, 78, 72, 85
97, 78, 72, 90
84, 86, 86, 81
84, 77, 63, 80
93, 92, 69, 76
86, 87, 83, 74
69, 82, 91, 93
101, 80, 91, 96
64, 89, 84, 87
78, 78, 76, 82
87, 76, 73, 70
80, 86, 69, 111
81, 70, 92, 88
72, 70, 71, 87
73, 92, 98, 96
95, 75, 79, 87
83, 64, 87, 75
73, 72, 90, 97
82, 91, 83, 110
74, 86, 97, 91
74, 94, 107, 69
93, 81, 90, 94
74, 91, 72, 92
74, 90, 85, 70
106, 90, 93, 80
95, 78, 79, 79
75, 83, 82, 78
103, 92, 88, 84
90, 84, 86, 75
81, 78, 77, 85
87, 95, 102, 83
69, 96, 92, 75
93, 94, 100, 90
93, 78, 77, 74
83, 85, 100, 87
70, 86, 90, 77
84, 79, 73, 90
81, 91, 85, 101
95, 81, 85, 75
70, 101, 75, 89
84, 88, 74, 87
85, 79, 73, 83
83, 88, 84, 61
87, 83, 86, 72
88, 91, 89, 82
85, 88, 100, 82
98, 80, 74, 88
84, 79, 63, 83
79, 93, 94, 93
76, 81, 81, 83
77, 92, 75, 88
86, 80, 71, 83
82, 89, 80, 81
78, 88, 75, 81
88, 73, 89, 92
95, 65, 95, 81
74, 81, 77, 78
80, 89, 98, 97
85, 83, 79, 98
77, 84, 80, 94
92, 92, 77, 89
89, 106, 90, 81
82, 80, 95, 94
88, 81, 93, 98
96, 79, 92, 82
96, 106, 99, 83
105, 83, 97, 104
95, 81, 82, 93
80, 87, 90, 97
96, 84, 91, 97
108, 98, 81, 79
108, 93, 95, 117
93, 88, 100, 94
105, 92, 89, 100
80, 112, 95, 84
103, 90, 83, 92
97, 109, 105, 88
90, 93, 88, 83
86, 85, 95, 93
87, 100, 85, 72
94, 94, 79, 96
84, 82, 95, 65
101, 77, 99, 76
85, 85, 83, 77
77, 92, 89, 69
78, 91, 88, 85
86, 71, 79, 74
94, 84, 88, 100
80, 84, 85, 89
99, 79, 81, 100
94, 81, 86, 75
81, 86, 69, 97
87, 102, 72, 68
83, 92, 81, 86
95, 107, 96, 80
98, 84, 87, 72
80, 80, 84, 74
77, 94, 79, 72
68, 85, 84, 83
85, 90, 81, 80
71, 91, 78, 82
82, 70, 70, 80
89, 83, 84, 99
79, 84, 75, 79
78, 78, 75, 89
85, 90, 81, 97
76, 83, 102, 80
92, 105, 90, 93
80, 87, 95, 94
81, 98, 92, 98
64, 98, 72, 70
94, 86, 82, 80
74, 61, 73, 85
85, 72, 89, 103
75, 92, 75, 81
92, 85, 80, 82
82, 98, 66, 90
95, 90, 75, 94
87, 60, 89, 93
75, 79, 85, 76
100, 81, 71, 85
81, 84, 76, 86
67, 86, 73, 80
77, 83, 96, 95
94, 106, 69, 84
85, 87, 93, 79
89, 74, 80, 87
71, 85, 70, 72
97, 85, 74, 80
103, 88, 84, 75
65, 91, 75, 80
93, 92, 89, 90
71, 88, 69, 71
87, 76, 85, 76
90, 86, 94, 82
73, 77, 103, 73
101, 102, 83, 89
77, 75, 88, 87
88, 90, 90, 84
79, 86, 88, 84
84, 90, 91, 86
88, 100, 93, 91
75, 97, 90, 81
76, 79, 88, 78
85, 95, 80, 74
85, 90, 85, 82
76, 88, 73, 89
73, 80, 94, 81
85, 93, 77, 82
69, 73, 80, 89
86, 77, 84, 89
81, 89, 70, 77
77, 84, 67, 72
78, 98, 87, 90
68, 83, 107, 83
73, 96, 97, 84
92, 87, 90, 82
84, 83, 88, 71
76, 81, 99, 74
85, 74, 84, 94
80, 77, 94, 81
77, 73, 79, 91
92, 103, 65, 85
79, 102, 81, 92
80, 101, 85, 89
93, 96, 84, 68
75, 86, 81, 88
99, 85, 88, 73
87, 99, 79, 82
81, 80, 79, 91
62, 86, 74, 96
86, 103, 91, 84
65, 87, 84, 100
91, 87, 90, 84
98, 91, 87, 71
81, 98, 87, 89
91, 93, 79, 73
71, 91, 81, 84
68, 89, 70, 84
73, 77, 94, 91
69, 93, 63, 67
95, 77, 90, 92
97, 97, 86, 73
83, 91, 87, 77
90, 85, 78, 92
96, 76, 94, 87
103, 87, 76, 66
78, 87, 79, 86
84, 75, 85, 77
79, 96, 76, 93
108, 67, 83, 74
89, 96, 82, 79
84, 71, 78, 100
88, 76, 92, 76
88, 85, 80, 76
82, 69, 83, 78
91, 91, 75, 104
83, 86, 83, 81
83, 97, 82, 80
107, 95, 76, 87
79, 89, 81, 90
91, 73, 80, 79
95, 89, 79, 89
87, 82, 80, 93
83, 79, 88, 78
85, 73, 81, 85
87, 65, 100, 88
96, 78, 97, 87
83, 79, 106, 89
84, 73, 91, 90
83, 80, 97, 88
85, 81, 86, 81
67, 87, 73, 105
86, 90, 89, 89
111, 102, 85, 81
99, 92, 83, 84
76, 84, 79, 83
94, 74, 70, 108
88, 92, 85, 76
88, 90, 86, 87
91, 74, 73, 82
89, 93, 83, 76
80, 79, 78, 99
102, 98, 88, 65
79, 93, 97, 80
85, 67, 76, 91
84, 79, 104, 97
94, 99, 88, 92
91, 82, 84, 82
81, 82, 91, 85
89, 81, 101, 97
84, 87, 74, 71
91, 84, 82, 97
74, 93, 78, 82
89, 79, 90, 75
86, 88, 102, 86
77, 91, 87, 81
92, 93, 99, 86
78, 85, 96, 79
89, 93, 87, 68
87, 66, 83, 92
90, 66, 100, 90
78, 81, 84, 74
99, 95, 88, 73
84, 75, 71, 94
90, 90, 88, 101
71, 81, 98, 89
85, 93, 77, 81
93, 89, 83, 84
98, 92, 94, 66
89, 81, 82, 91
81, 84, 75, 93
88, 89, 90, 106
88, 101, 79, 92
79, 91, 84, 80
96, 92, 79, 84
83, 87, 102, 90
91, 86, 87, 89
87, 102, 84, 106
97, 97, 84, 85
69, 90, 92, 74
78, 98, 92, 89
79, 78, 86, 99
91, 90, 77, 83
83, 80, 84, 76
80, 88, 75, 92
87, 69, 77, 76
70, 86, 74, 89
86, 101, 87, 81
95, 67, 82, 85
98, 77, 91, 73
89, 99, 86, 90
86, 100, 102, 85
95, 88, 87, 97
85, 72, 87, 84
100, 88, 97, 96
86, 74, 102, 98
90, 105, 90, 82
97, 89, 85, 94
86, 98, 100, 96
85, 89, 94, 86
95, 71, 79, 101
96, 80, 93, 91
84, 82, 75, 82
85, 99, 76, 92
87, 92, 87, 91
94, 81, 84, 85
92, 71, 87, 88
96, 79, 100, 88
83, 91, 84, 94
73, 93, 92, 81
70, 102, 94, 91
100, 90, 100, 88
99, 91, 89, 89
79, 96, 79, 76
91, 89, 93, 79
97, 88, 107, 78
84, 90, 78, 69
94, 72, 86, 100
85, 85, 89, 102
79, 95, 88, 85
79, 85, 88, 81
73, 79, 86, 88
87, 91, 96, 85
93, 83, 108, 89
91, 86, 93, 86
81, 99, 89, 78
102, 81, 68, 99
104, 91, 86, 92
108, 81, 87, 88
86, 98, 93, 91
84, 100, 79, 97
84, 83, 97, 77
94, 88, 90, 113
84, 92, 96, 87
86, 71, 106, 94
86, 96, 82, 98
92, 81, 104, 109
89, 91, 92, 87
97, 92, 85, 82
82, 101, 87, 85
98, 97, 92, 95
92, 87, 99, 80
100, 81, 89, 83
97, 85, 83, 84
92, 100, 79, 96
92, 84, 93, 98
86, 80, 98, 86
90, 81, 89, 74
73, 114, 102, 99
92, 97, 90, 88
84, 82, 91, 110
111, 91, 102, 98
95, 96, 80, 91
93, 92, 113, 99
94, 99, 111, 96
95, 82, 101, 117
98, 120, 96, 101
89, 93, 107, 107
94, 100, 100, 99
102, 122, 98, 96
98, 88, 89, 97
92, 99, 104, 92
104, 104, 96, 97
85, 82, 99, 88
80, 106, 97, 103
121, 86, 95, 88
99, 103, 99, 83
97, 98, 81, 106
95, 90, 102, 94
94, 96, 93, 87
78, 75, 100, 112
77, 87, 95, 99
73, 90, 87, 88
91, 84, 85, 95
93, 88, 82, 80
85, 100, 84, 87
91, 67, 77, 94
88, 94, 91, 74
89, 88, 86, 94
74, 83, 96, 70
86, 78, 95, 90
105, 86, 97, 96
76, 100, 84, 103
90, 98, 80, 79
107, 82, 92, 100
78, 94, 82, 83
81, 88, 88, 90
93, 74, 84, 90
80, 82, 81, 92
99, 110, 85, 93
81, 87, 93, 79
76, 105, 77, 101
75, 90, 92, 71
102, 86, 85, 98
79, 89, 95, 81
94, 85, 98, 90
90, 102, 100, 84
97, 101, 87, 81
99, 97, 81, 79
84, 98, 103, 95
90, 90, 97, 82
79, 76, 101, 78
92, 89, 81, 100
80, 73, 112, 85
98, 78, 91, 81
78, 98, 91, 87
85, 103, 82, 90
92, 94, 101, 90
102, 86, 84, 90
79, 79, 82, 93
97, 101, 75, 96
89, 103, 98, 81
106, 95, 97, 82
83, 102, 91, 93
91, 74, 83, 88
90, 96, 81, 103
89, 88, 76, 86
89, 112, 92, 87
103, 97, 100, 87
89, 91, 101, 100
79, 95, 95, 92
100, 87, 89, 106
99, 73, 104, 77
91, 100, 80, 73
86, 94, 87, 98
117, 76, 79, 90
98, 89, 85, 91
97, 97, 96, 86
93, 88, 95, 79
88, 94, 96, 92
84, 91, 104, 83
81, 106, 71, 113
88, 86, 88, 102
92, 89, 68, 93
92, 103, 91, 95
91, 89, 78, 98
84, 108, 114, 85
82, 95, 109, 82
97, 98, 91, 88
100, 78, 83, 81
82, 98, 81, 99
76, 88, 98, 84
74, 92, 93, 92
96, 77, 101, 85
88, 96, 112, 94
82, 85, 80, 86
91, 94, 102, 95
103, 77, 79, 103
79, 80, 91, 87
82, 82, 94, 105
96, 77, 102, 90
96, 89, 90, 93
94, 100, 106, 85
86, 113, 90, 79
104, 82, 99, 84
103, 94, 83, 84
75, 88, 109, 91
98, 94, 75, 108
89, 76, 80, 93
84, 86, 87, 78
91, 98, 81, 93
92, 93, 91, 84
98, 100, 91, 103
84, 108, 90, 102
78, 70, 89, 98
96, 96, 92, 97
94, 84, 92, 85
91, 78, 99, 74
101, 99, 88, 86
99, 91, 99, 102
98, 82, 93, 97
87, 85, 90, 92
81, 101, 91, 103
104, 82, 109, 93
84
*END

*EOF
