*TYPE		=  Raw
*CLASS		=  ASCII CLASS
*SAMPLE		=   
*COMMENT	=   
*FNAME		=  1-6_2-Theta_Omega.asc
*DATE		=  11-Dec-25 15:35

*GROUP_COUNT	=  1
*GONIO		=  SmartLab(In-plane), 0.000000
*ATTACHMENT	=  Z-Phi Stage
*ASC		=  0, 0, 0.000000, 0.000000
*I_MONOCHRO	=  Soller_slit_5.0deg, 0.000000
*FILTER		=  None
*C_MONOCHRO	=  None, 0.000000
*SLIT_NAME	=  0, Incident slit
*SLIT_NAME	=  1, Receiving slit # 1
*SLIT_NAME	=  2, Receiving slit # 2
*COUNTER	=  SC-70, 0
*POS_FORMAT	=  0
*SCAN_AXIS	=  2Theta/Omega
*MEAS_MODE	=  Continuous Scanning
*TARGET		=  29
*XRAY_CHAR	=  K-ALPHA
*WAVE_LENGTH1	=  1.54059
*WAVE_LENGTH2	=  1.54441
*THICKNESS	=  0, 0.000000
*MU		=  0, 0.000000
*SCAN_MODE	=  2Theta/Omega
*SPEED_DIM	=  sec./step
*XUNIT		=  deg.
*YUNIT		=  counts
*SCALE_MODE	=  1
*REP_COUNT	=  0
*SE_COUNT	=  0
*STD_MATERIAL	=  Unknown, Unknown, 0.000000, 0.000000, 0.000000, 0.000000, 0.000000, 0.000000
*LATT_CONS	=  0, Unknown, Unknown, 0.000000, 0.000000, 0.000000, 0.000000, 0.000000, 0.000000
*SEC_COUNT	=  1
*TSPEC_SIZE	=  0
*EXTRA_SIZE	=  0
*MEMO		=   

*BEGIN
*GROUP		=  0
*START		=  20
*STOP		=  80
*STEP		=  0.01
*OFFSET		=  0.000000
*SPEED		=  0.05
*SLIT_SPEC	=  0, 1.000mm, 1, 0.000000
*SLIT_SPEC	=  1, 1.000mm, 1, 0.000000
*SLIT_SPEC	=  2, 1.000mm, 1, 0.000000
*KV		=  40
*MA		=  100
*LOW		=  0.000000
*HIGH		=  0.000000
*CTEMPER	=  0, 0.000000
*CTEMPER	=  1, 0.000000
*CTEMPER	=  2, 0.000000
*PAREX		=  0, 0.000000
*PAREX		=  1, 0.000000
*PAREX		=  2, 0.000000
*PAREX		=  3, 0.000000
*PAREX		=  4, 0.000000
*PAREX		=  5, 0.000000
*PAREX		=  6, 0.000000
*PAREX		=  7, 0.000000
*PAREX		=  8, 0.000000
*PAREX		=  9, 0.000000
*PAREX		=  10, 0.000000
*PAREX		=  11, 0.000000
*PAREX		=  12, 0.000000
*PAREX		=  13, 0.000000
*PAREX		=  14, 0.000000
*PAREX		=  15, 0.000000
*FULL_SCALE	=  1185694.6
*INDEX		=  0, 0, 0
*COUNT		=  6001
87, 96, 91, 94
89, 84, 69, 97
86, 83, 82, 83
87, 86, 96, 72
82, 90, 92, 87
82, 97, 90, 85
81, 87, 82, 99
85, 87, 82, 92
86, 87, 84, 80
79, 78, 96, 87
78, 93, 103, 79
86, 86, 80, 77
98, 105, 97, 87
83, 80, 87, 97
105, 96, 99, 79
111, 84, 95, 105
112, 115, 110, 116
118, 99, 100, 117
94, 89, 103, 100
80, 115, 94, 113
73, 87, 95, 99
83, 97, 91, 83
94, 95, 94, 85
84, 80, 80, 100
84, 97, 93, 95
96, 90, 76, 97
97, 79, 118, 86
82, 101, 83, 91
82, 78, 101, 82
80, 118, 91, 94
98, 89, 84, 85
89, 80, 81, 95
79, 93, 75, 83
65, 98, 78, 89
95, 82, 96, 86
95, 100, 97, 95
97, 84, 95, 92
92, 100, 96, 94
90, 90, 68, 91
89, 101, 77, 89
67, 88, 87, 89
72, 90, 95, 113
105, 85, 79, 94
94, 80, 83, 78
86, 86, 87, 94
70, 103, 93, 78
89, 73, 83, 119
83, 89, 84, 84
72, 96, 86, 83
94, 85, 79, 92
65, 87, 84, 85
87, 90, 90, 94
81, 91, 81, 93
69, 81, 101, 95
88, 92, 84, 89
101, 83, 81, 74
87, 98, 82, 90
97, 95, 88, 101
94, 88, 72, 86
91, 75, 101, 104
81, 97, 94, 96
90, 93, 70, 81
84, 84, 81, 73
88, 87, 85, 84
85, 86, 98, 104
75, 95, 83, 75
96, 81, 88, 74
83, 93, 82, 84
77, 94, 95, 99
79, 80, 92, 89
82, 87, 91, 84
80, 85, 83, 96
86, 76, 70, 85
85, 93, 77, 83
91, 86, 86, 97
105, 78, 92, 97
108, 78, 85, 97
81, 90, 84, 93
89, 93, 95, 71
99, 93, 78, 106
93, 70, 89, 88
95, 101, 95, 84
88, 86, 92, 76
81, 87, 82, 104
96, 85, 82, 92
88, 92, 97, 85
84, 98, 92, 81
84, 89, 91, 92
92, 94, 88, 80
77, 78, 90, 98
107, 75, 68, 90
85, 80, 75, 81
75, 89, 101, 80
92, 92, 88, 85
93, 96, 73, 77
87, 90, 93, 100
93, 72, 74, 92
88, 86, 88, 84
87, 95, 84, 93
89, 85, 93, 86
69, 90, 92, 78
97, 79, 73, 77
85, 93, 99, 86
71, 102, 80, 87
72, 93, 77, 94
82, 93, 107, 76
94, 99, 90, 84
87, 81, 97, 92
94, 76, 80, 85
85, 94, 98, 92
108, 89, 74, 88
89, 93, 96, 85
84, 95, 101, 78
88, 97, 99, 86
85, 78, 85, 89
91, 82, 104, 102
88, 78, 78, 90
79, 101, 94, 80
94, 94, 106, 85
86, 85, 89, 103
91, 97, 91, 81
91, 82, 95, 78
101, 73, 86, 86
116, 87, 96, 84
94, 73, 97, 92
104, 93, 72, 86
95, 95, 99, 87
94, 92, 88, 88
102, 93, 78, 92
125, 78, 109, 99
78, 80, 74, 100
92, 93, 103, 83
83, 102, 101, 97
78, 90, 86, 92
94, 85, 89, 98
105, 89, 93, 102
110, 95, 87, 74
83, 92, 90, 99
83, 83, 97, 83
86, 88, 112, 102
101, 86, 89, 101
99, 93, 98, 89
85, 103, 79, 102
97, 117, 103, 106
104, 101, 97, 116
102, 88, 93, 92
105, 111, 111, 115
85, 93, 109, 95
85, 106, 113, 92
107, 90, 102, 94
101, 120, 110, 112
105, 110, 119, 127
83, 114, 145, 114
119, 116, 119, 104
100, 104, 121, 131
103, 126, 117, 99
92, 109, 117, 143
118, 104, 115, 126
128, 109, 125, 115
119, 93, 134, 120
115, 123, 100, 112
114, 111, 120, 114
116, 117, 113, 113
113, 117, 134, 132
122, 101, 122, 124
132, 111, 111, 105
97, 113, 128, 126
99, 99, 118, 128
120, 111, 140, 87
103, 104, 101, 117
99, 110, 97, 98
100, 99, 96, 86
83, 111, 97, 85
96, 112, 105, 91
108, 100, 90, 90
80, 96, 87, 111
120, 72, 95, 102
85, 68, 92, 94
95, 105, 98, 79
94, 104, 80, 93
102, 98, 104, 113
100, 92, 83, 87
87, 99, 87, 95
102, 107, 97, 100
93, 75, 85, 108
86, 95, 80, 86
97, 82, 93, 87
101, 99, 92, 99
89, 96, 103, 95
95, 99, 85, 105
107, 92, 91, 104
97, 80, 71, 76
106, 102, 91, 109
88, 95, 96, 83
91, 91, 94, 114
88, 85, 93, 93
90, 86, 78, 92
101, 95, 67, 96
87, 100, 91, 99
96, 85, 87, 81
92, 101, 91, 106
88, 78, 102, 96
83, 98, 90, 81
80, 71, 86, 94
90, 75, 98, 89
105, 99, 85, 101
99, 99, 100, 100
79, 84, 88, 81
92, 96, 92, 80
88, 86, 100, 103
90, 84, 95, 86
109, 77, 105, 98
87, 86, 92, 97
75, 103, 101, 78
99, 82, 93, 110
91, 81, 100, 90
106, 83, 84, 95
93, 79, 92, 74
79, 107, 73, 106
101, 100, 97, 106
97, 91, 96, 89
93, 88, 84, 97
102, 103, 97, 91
103, 89, 89, 90
102, 106, 86, 104
84, 95, 103, 98
90, 103, 87, 95
85, 102, 91, 77
90, 102, 77, 98
92, 95, 93, 96
83, 82, 96, 101
106, 87, 88, 82
94, 83, 90, 88
93, 99, 96, 85
91, 89, 100, 79
83, 94, 85, 101
95, 84, 111, 104
97, 90, 94, 97
83, 80, 94, 80
88, 80, 86, 80
80, 104, 106, 95
95, 101, 88, 88
89, 70, 81, 82
92, 91, 100, 103
85, 79, 89, 84
79, 90, 93, 111
86, 81, 80, 87
95, 88, 93, 95
102, 101, 99, 88
90, 94, 78, 93
92, 88, 89, 82
83, 95, 100, 89
93, 111, 73, 91
95, 75, 94, 100
97, 106, 93, 83
82, 83, 78, 89
87, 103, 101, 103
89, 96, 97, 92
94, 107, 99, 105
89, 104, 102, 89
110, 82, 89, 86
92, 86, 95, 101
88, 94, 92, 88
86, 101, 89, 108
79, 100, 84, 96
91, 83, 95, 94
83, 79, 88, 91
88, 89, 92, 94
100, 96, 114, 102
87, 99, 87, 98
100, 105, 95, 91
93, 116, 80, 96
90, 69, 98, 92
104, 81, 87, 98
92, 90, 99, 92
97, 104, 106, 84
92, 95, 97, 98
95, 93, 102, 87
101, 92, 95, 110
92, 109, 87, 92
101, 101, 96, 96
98, 100, 94, 94
100, 116, 88, 89
99, 91, 106, 116
101, 90, 91, 94
105, 100, 89, 100
95, 95, 95, 84
107, 88, 90, 81
94, 86, 71, 80
90, 102, 85, 95
98, 89, 93, 97
89, 94, 100, 104
97, 70, 75, 93
89, 97, 87, 108
82, 114, 106, 102
67, 95, 101, 91
93, 92, 93, 108
108, 106, 82, 97
97, 76, 77, 105
99, 88, 95, 96
99, 97, 96, 84
90, 101, 102, 104
104, 98, 93, 110
94, 102, 98, 88
106, 99, 101, 88
91, 117, 99, 95
95, 94, 105, 95
94, 107, 94, 96
100, 100, 85, 98
96, 79, 85, 94
87, 101, 99, 86
90, 80, 94, 99
93, 79, 112, 81
101, 105, 110, 97
100, 93, 116, 114
97, 105, 119, 96
83, 107, 91, 89
90, 94, 84, 88
102, 84, 91, 115
91, 104, 91, 95
84, 80, 94, 106
91, 106, 82, 72
82, 89, 105, 97
114, 85, 98, 77
103, 110, 94, 95
85, 112, 91, 100
98, 105, 102, 96
95, 76, 105, 105
104, 89, 106, 104
105, 95, 97, 98
99, 111, 111, 83
108, 105, 122, 97
102, 98, 110, 103
97, 104, 97, 101
101, 96, 102, 106
109, 104, 114, 84
94, 96, 112, 89
99, 115, 112, 94
100, 105, 108, 92
110, 115, 92, 107
104, 98, 110, 110
93, 103, 99, 101
92, 101, 96, 95
107, 119, 109, 113
111, 108, 106, 110
108, 127, 105, 107
115, 107, 109, 121
122, 98, 112, 123
100, 124, 81, 131
111, 117, 119, 133
111, 113, 144, 122
125, 142, 127, 118
133, 110, 127, 105
115, 132, 113, 122
142, 132, 134, 120
114, 124, 145, 130
124, 116, 121, 103
137, 125, 116, 111
141, 147, 139, 125
132, 143, 138, 143
158, 126, 141, 145
152, 139, 182, 148
180, 150, 189, 194
191, 176, 225, 214
241, 230, 258, 269
269, 301, 269, 313
320, 306, 323, 334
365, 339, 331, 307
325, 334, 329, 331
317, 330, 305, 304
300, 292, 315, 310
293, 292, 292, 300
277, 296, 273, 273
314, 305, 293, 324
303, 309, 296, 320
275, 298, 266, 298
323, 324, 320, 322
309, 347, 346, 308
320, 333, 349, 326
326, 347, 338, 376
360, 377, 354, 343
330, 397, 349, 403
402, 417, 436, 444
389, 464, 458, 514
491, 536, 562, 556
607, 641, 689, 700
767, 831, 867, 873
997, 1016, 1069, 1135
1080, 1201, 1276, 1278
1299, 1337, 1338, 1462
1450, 1508, 1585, 1570
1559, 1615, 1612, 1578
1670, 1630, 1629, 1625
1659, 1601, 1593, 1566
1569, 1426, 1517, 1449
1381, 1325, 1435, 1342
1354, 1303, 1318, 1261
1232, 1196, 1159, 1144
1091, 1080, 1044, 1012
971, 999, 911, 836
822, 784, 757, 768
730, 640, 616, 618
570, 574, 527, 513
462, 419, 415, 421
346, 346, 366, 320
315, 336, 364, 279
305, 290, 256, 251
263, 207, 238, 229
219, 203, 189, 196
194, 165, 160, 190
172, 164, 155, 167
150, 152, 147, 134
142, 131, 133, 144
130, 117, 129, 122
122, 117, 130, 126
108, 117, 133, 129
109, 116, 124, 116
95, 116, 116, 118
97, 105, 111, 99
111, 104, 110, 117
111, 97, 116, 97
117, 107, 112, 93
96, 109, 98, 108
112, 113, 118, 96
109, 104, 89, 101
124, 101, 104, 103
94, 98, 88, 106
100, 104, 92, 92
100, 92, 115, 101
116, 116, 105, 106
98, 104, 98, 88
97, 100, 109, 114
98, 111, 104, 113
106, 113, 101, 107
117, 101, 112, 115
107, 103, 107, 117
103, 93, 105, 116
116, 130, 103, 131
118, 108, 109, 128
136, 143, 149, 197
184, 231, 253, 287
318, 357, 315, 353
317, 290, 260, 196
152, 132, 154, 152
126, 110, 138, 128
110, 111, 119, 94
120, 101, 114, 104
110, 99, 105, 99
120, 119, 113, 103
103, 123, 117, 97
106, 114, 102, 109
103, 119, 102, 98
96, 100, 101, 105
95, 116, 86, 117
85, 98, 102, 98
106, 111, 95, 121
121, 106, 130, 97
95, 104, 120, 106
93, 103, 115, 110
97, 97, 100, 99
110, 89, 102, 109
132, 126, 104, 106
107, 103, 86, 109
109, 105, 94, 111
89, 113, 102, 104
108, 113, 96, 98
97, 99, 113, 111
84, 120, 118, 110
105, 120, 106, 124
116, 107, 154, 109
89, 105, 94, 104
95, 114, 96, 96
101, 106, 114, 107
104, 127, 103, 110
102, 115, 120, 117
109, 114, 113, 121
109, 95, 126, 110
112, 112, 107, 127
120, 117, 103, 116
113, 125, 114, 120
122, 106, 127, 121
103, 116, 107, 121
114, 93, 96, 129
137, 148, 125, 130
125, 118, 118, 124
121, 116, 120, 132
114, 106, 122, 143
131, 130, 121, 146
120, 129, 132, 129
144, 130, 122, 140
145, 145, 151, 165
137, 138, 126, 157
152, 175, 139, 145
124, 149, 142, 156
170, 163, 159, 136
156, 173, 173, 180
156, 147, 170, 188
208, 187, 211, 198
234, 323, 320, 378
468, 496, 536, 654
655, 649, 610, 584
513, 418, 340, 280
285, 239, 229, 205
185, 185, 194, 186
191, 159, 175, 150
167, 170, 187, 186
169, 160, 181, 206
202, 234, 239, 301
262, 269, 234, 257
201, 209, 236, 190
162, 171, 182, 164
159, 173, 170, 188
164, 170, 157, 166
170, 176, 187, 178
198, 153, 166, 173
176, 181, 172, 187
169, 195, 181, 169
210, 176, 191, 166
184, 176, 174, 193
203, 161, 200, 193
205, 189, 194, 175
197, 188, 211, 194
193, 205, 198, 200
196, 193, 203, 194
197, 188, 203, 206
193, 205, 191, 223
205, 188, 235, 215
191, 183, 201, 219
191, 242, 196, 208
198, 193, 204, 215
226, 242, 199, 211
233, 201, 219, 221
223, 239, 233, 196
208, 214, 221, 222
213, 227, 229, 223
231, 258, 247, 257
244, 239, 242, 251
264, 265, 305, 297
295, 275, 346, 338
390, 386, 409, 470
532, 585, 638, 681
772, 808, 846, 964
982, 1047, 1026, 1074
1151, 1397, 1624, 2018
2510, 3593, 4782, 6905
10412, 16603, 24328.4, 34461.4
45201.3, 49403.9, 43987.3, 39504.5
32360.1, 24982.1, 15736.4, 14055.4
11767.3, 14569, 16997.2, 20079.1
21760.2, 20265.9, 19145.2, 15689.7
10342, 6667, 4094, 2710
1769, 1350, 973, 823
678, 624, 531, 510
510, 478, 417, 426
404, 361, 344, 327
335, 345, 314, 281
281, 294, 276, 235
246, 268, 266, 215
221, 242, 220, 225
193, 214, 193, 192
221, 197, 191, 183
204, 175, 190, 159
190, 180, 177, 178
165, 170, 192, 163
183, 183, 158, 173
147, 158, 113, 176
190, 163, 167, 153
167, 169, 154, 152
140, 167, 153, 143
133, 134, 163, 159
163, 136, 159, 113
134, 154, 169, 144
159, 126, 151, 135
131, 139, 141, 150
139, 151, 159, 130
139, 124, 155, 122
119, 126, 132, 162
127, 153, 168, 134
132, 149, 144, 142
142, 139, 115, 130
146, 143, 150, 134
129, 139, 141, 139
143, 137, 157, 150
153, 159, 120, 138
140, 133, 143, 148
144, 139, 148, 145
129, 145, 151, 140
159, 141, 150, 158
142, 169, 152, 157
164, 181, 152, 168
160, 165, 159, 170
185, 165, 184, 186
197, 172, 193, 175
234, 223, 234, 234
245, 260, 299, 316
315, 330, 390, 429
491, 534, 625, 679
808, 903, 1012, 1095
1279, 1486, 1600, 1732
1967, 2187, 2370, 2644
2759, 2903, 3053, 3337
3494, 3651, 3820, 3863
3932, 4200, 4073, 4098
4233, 4250, 4158, 4207
4022, 3904, 3789, 3724
3553, 3385, 3235, 3038
2848, 2597, 2515, 2273
2160, 1852, 1787, 1603
1413, 1358, 1177, 1098
972, 904, 740, 737
602, 592, 520, 488
431, 375, 314, 306
307, 330, 261, 292
220, 243, 238, 236
223, 224, 199, 202
184, 182, 184, 178
143, 165, 168, 146
147, 153, 147, 156
144, 149, 123, 136
125, 135, 150, 141
124, 133, 125, 118
129, 132, 133, 139
118, 113, 122, 123
131, 114, 133, 128
123, 114, 127, 116
123, 116, 120, 127
110, 124, 105, 108
115, 129, 106, 114
129, 106, 95, 124
109, 128, 118, 115
86, 120, 119, 110
98, 101, 111, 111
111, 107, 121, 99
103, 110, 111, 115
108, 110, 132, 143
125, 79, 102, 112
89, 114, 125, 106
99, 111, 101, 109
115, 121, 123, 126
95, 110, 109, 122
98, 123, 107, 123
110, 125, 115, 100
98, 123, 102, 106
113, 98, 102, 122
111, 96, 107, 106
88, 114, 97, 108
84, 99, 128, 132
106, 118, 112, 98
94, 127, 97, 122
92, 97, 107, 100
117, 112, 111, 108
114, 102, 89, 96
103, 102, 92, 103
99, 104, 117, 109
100, 94, 94, 97
110, 115, 103, 116
121, 97, 109, 97
116, 113, 97, 105
86, 103, 131, 110
108, 111, 92, 108
111, 97, 93, 109
107, 89, 105, 107
117, 103, 92, 91
98, 108, 117, 113
116, 103, 123, 101
106, 100, 93, 112
94, 100, 113, 106
88, 119, 95, 113
96, 117, 91, 82
88, 103, 96, 105
108, 82, 112, 103
88, 101, 98, 103
108, 113, 86, 105
105, 94, 101, 112
112, 118, 134, 91
106, 100, 90, 103
104, 107, 107, 113
125, 117, 123, 99
93, 132, 116, 105
104, 115, 120, 99
108, 95, 113, 96
113, 101, 104, 88
119, 112, 98, 117
113, 101, 106, 125
111, 101, 99, 107
93, 91, 117, 94
93, 114, 103, 108
110, 121, 107, 104
88, 122, 98, 101
105, 102, 110, 106
95, 101, 99, 125
106, 101, 90, 93
118, 113, 105, 109
103, 120, 98, 103
127, 104, 108, 117
99, 100, 105, 101
135, 122, 110, 88
92, 104, 112, 105
116, 102, 97, 113
132, 109, 106, 102
111, 93, 103, 97
94, 80, 101, 90
102, 105, 110, 86
69, 121, 124, 112
94, 105, 100, 94
98, 106, 91, 97
104, 103, 111, 96
97, 103, 106, 101
81, 104, 114, 91
98, 103, 108, 115
104, 103, 111, 104
99, 84, 108, 95
95, 108, 102, 106
125, 108, 118, 95
106, 87, 113, 87
84, 104, 108, 84
87, 93, 104, 100
121, 86, 110, 111
100, 102, 99, 100
102, 115, 88, 97
106, 102, 90, 107
94, 118, 101, 105
107, 108, 112, 118
104, 94, 96, 104
100, 103, 116, 99
126, 116, 104, 105
118, 100, 93, 81
109, 87, 98, 111
124, 102, 106, 101
89, 110, 118, 95
116, 100, 116, 95
102, 81, 113, 120
103, 106, 112, 110
101, 97, 97, 87
96, 112, 106, 108
109, 100, 108, 86
110, 116, 112, 105
120, 109, 99, 105
114, 98, 111, 116
108, 107, 94, 94
89, 100, 105, 106
104, 110, 116, 88
107, 105, 103, 92
109, 115, 107, 122
85, 114, 105, 92
91, 89, 109, 117
119, 118, 104, 103
117, 103, 94, 108
102, 92, 115, 98
107, 102, 92, 113
94, 121, 88, 103
109, 101, 119, 83
100, 91, 114, 119
95, 128, 107, 90
114, 109, 106, 106
112, 118, 111, 100
99, 94, 116, 91
97, 114, 111, 98
100, 103, 92, 111
112, 114, 100, 105
119, 104, 116, 105
107, 121, 99, 103
119, 106, 118, 107
117, 112, 104, 102
109, 112, 115, 111
97, 91, 96, 94
113, 97, 101, 104
98, 118, 106, 86
113, 109, 92, 95
105, 81, 103, 91
77, 87, 106, 117
94, 111, 112, 115
94, 109, 112, 100
102, 91, 100, 118
86, 93, 112, 109
112, 104, 113, 96
114, 104, 113, 105
113, 123, 116, 115
94, 96, 91, 88
105, 77, 106, 118
112, 92, 107, 91
101, 108, 122, 104
104, 121, 96, 111
88, 112, 108, 92
100, 94, 108, 101
97, 100, 97, 97
109, 97, 90, 90
111, 95, 105, 113
100, 114, 113, 100
97, 89, 94, 125
107, 120, 94, 115
102, 95, 90, 85
104, 109, 112, 115
98, 88, 133, 94
116, 93, 117, 95
102, 93, 94, 90
126, 99, 120, 85
110, 114, 87, 82
105, 105, 80, 101
121, 106, 91, 94
111, 94, 104, 107
106, 120, 99, 103
101, 108, 99, 128
105, 92, 123, 107
124, 123, 112, 103
104, 102, 90, 124
133, 116, 82, 124
91, 106, 89, 101
119, 94, 107, 93
116, 105, 93, 108
101, 98, 105, 105
105, 96, 117, 117
124, 93, 109, 120
111, 104, 116, 99
94, 113, 113, 108
111, 100, 123, 111
116, 118, 102, 98
92, 84, 95, 107
108, 97, 99, 104
103, 88, 141, 143
83, 104, 100, 110
111, 98, 103, 93
101, 100, 120, 110
104, 107, 112, 110
121, 103, 95, 106
97, 103, 102, 104
91, 96, 109, 94
108, 121, 93, 97
91, 109, 106, 112
111, 104, 106, 127
96, 113, 120, 93
104, 113, 117, 112
108, 107, 119, 114
101, 125, 99, 129
105, 113, 102, 95
112, 87, 133, 93
100, 93, 107, 100
116, 107, 99, 101
109, 101, 98, 104
106, 107, 112, 107
133, 90, 114, 96
111, 98, 103, 99
114, 95, 122, 107
92, 104, 91, 104
102, 87, 108, 117
113, 98, 101, 119
111, 103, 102, 87
112, 102, 94, 96
109, 121, 111, 116
91, 93, 100, 118
99, 107, 117, 116
101, 102, 101, 101
112, 107, 113, 115
94, 104, 96, 105
89, 103, 100, 124
119, 106, 106, 109
120, 114, 96, 98
118, 96, 113, 90
95, 127, 117, 105
103, 121, 117, 99
99, 105, 111, 113
113, 108, 112, 105
115, 111, 94, 95
104, 98, 109, 121
102, 100, 106, 99
102, 100, 99, 116
93, 102, 117, 106
111, 121, 106, 86
120, 110, 92, 101
108, 94, 112, 111
102, 120, 103, 128
102, 113, 122, 135
113, 100, 95, 114
100, 100, 114, 94
94, 121, 117, 103
117, 110, 107, 99
98, 99, 112, 106
125, 121, 116, 113
119, 101, 106, 124
106, 110, 123, 116
126, 121, 104, 101
106, 110, 99, 120
114, 84, 99, 108
86, 113, 97, 99
108, 95, 112, 100
109, 112, 112, 107
111, 97, 111, 113
118, 101, 115, 96
117, 111, 106, 105
91, 133, 103, 106
111, 112, 105, 102
107, 98, 101, 96
111, 117, 89, 100
127, 91, 119, 110
111, 133, 102, 117
92, 88, 95, 87
92, 99, 108, 95
122, 133, 107, 114
115, 95, 114, 132
87, 105, 106, 106
99, 106, 94, 83
104, 100, 121, 108
103, 107, 129, 80
107, 123, 116, 92
101, 105, 117, 108
98, 114, 117, 101
91, 80, 98, 109
118, 123, 102, 108
103, 91, 95, 105
117, 93, 114, 114
96, 110, 93, 121
90, 104, 105, 92
117, 106, 115, 114
109, 114, 100, 109
100, 124, 103, 92
108, 108, 105, 80
93, 107, 98, 109
104, 120, 115, 126
93, 108, 100, 97
107, 106, 109, 98
103, 86, 103, 112
102, 101, 119, 91
118, 112, 106, 100
89, 134, 100, 107
104, 103, 101, 89
115, 106, 96, 106
99, 105, 90, 120
100, 98, 102, 110
90, 105, 101, 104
104, 113, 119, 116
94, 96, 110, 122
120, 96, 98, 93
105, 108, 102, 103
122, 102, 110, 113
102, 103, 108, 102
96, 96, 110, 119
108, 126, 90, 109
98, 103, 104, 108
106, 115, 107, 107
89, 112, 103, 102
119, 87, 101, 117
101, 104, 115, 116
107, 110, 92, 82
113, 107, 92, 110
103, 106, 122, 105
86, 110, 101, 85
121, 110, 101, 98
91, 102, 115, 97
98, 95, 105, 100
100, 104, 105, 92
110, 115, 106, 99
110, 119, 110, 104
96, 111, 105, 100
118, 103, 106, 111
128, 103, 109, 100
111, 108, 119, 111
111, 108, 118, 94
116, 106, 102, 122
109, 125, 91, 103
93, 107, 107, 99
90, 107, 86, 92
106, 106, 87, 100
114, 109, 106, 103
122, 106, 96, 105
121, 95, 107, 88
96, 89, 111, 83
113, 105, 113, 118
99, 117, 107, 89
87, 110, 103, 113
109, 109, 102, 109
95, 129, 105, 112
117, 83, 99, 114
108, 129, 98, 77
90, 104, 115, 105
122, 94, 124, 123
100, 98, 135, 117
99, 106, 108, 114
125, 104, 128, 104
112, 121, 124, 122
113, 113, 96, 105
102, 114, 117, 102
121, 87, 101, 106
121, 93, 103, 98
112, 90, 109, 115
116, 121, 103, 123
109, 121, 100, 114
116, 98, 119, 105
110, 112, 112, 109
99, 114, 116, 113
120, 101, 108, 112
81, 87, 102, 106
92, 100, 107, 101
92, 91, 97, 114
95, 120, 105, 91
109, 122, 96, 119
94, 111, 106, 106
106, 96, 109, 105
98, 103, 108, 112
94, 103, 99, 115
94, 92, 105, 113
102, 120, 93, 104
109, 102, 89, 89
132, 107, 109, 89
107, 87, 103, 105
99, 110, 100, 112
104, 84, 104, 102
118, 104, 100, 80
114, 108, 90, 117
83, 96, 122, 84
119, 99, 91, 105
119, 111, 123, 101
104, 106, 116, 112
110, 108, 106, 108
109, 99, 116, 90
118, 96, 103, 96
99, 110, 115, 111
112, 114, 116, 110
115, 93, 91, 107
109, 97, 113, 97
113, 90, 105, 111
109, 100, 118, 98
92, 100, 106, 113
97, 100, 100, 113
83, 119, 92, 88
126, 103, 101, 105
100, 126, 95, 103
98, 98, 102, 112
105, 108, 98, 109
109, 104, 101, 128
107, 108, 118, 96
96, 106, 103, 100
105, 102, 120, 110
112, 112, 102, 110
116, 108, 117, 108
93, 82, 98, 118
89, 102, 127, 95
100, 103, 121, 87
111, 121, 108, 129
104, 113, 83, 109
111, 105, 110, 100
118, 107, 94, 92
84, 108, 102, 100
109, 87, 113, 102
99, 112, 104, 90
121, 115, 113, 91
81, 93, 113, 125
99, 101, 105, 107
101, 94, 100, 105
115, 125, 113, 128
118, 110, 103, 106
108, 94, 118, 108
105, 108, 105, 110
92, 126, 109, 120
97, 108, 83, 95
108, 97, 93, 111
123, 105, 115, 104
107, 114, 103, 118
100, 121, 105, 90
91, 95, 111, 118
107, 88, 98, 97
109, 112, 100, 112
105, 102, 142, 90
98, 107, 90, 107
125, 101, 120, 103
94, 122, 109, 94
110, 101, 98, 114
98, 99, 107, 100
101, 110, 125, 112
96, 110, 99, 112
91, 118, 109, 112
109, 100, 103, 112
110, 103, 112, 120
113, 100, 99, 106
97, 85, 106, 115
111, 102, 99, 96
120, 110, 115, 94
97, 116, 103, 103
105, 105, 126, 123
109, 101, 119, 116
122, 107, 106, 106
81, 99, 86, 104
107, 114, 69, 93
85, 113, 120, 88
98, 108, 92, 96
98, 129, 101, 96
121, 96, 124, 94
100, 96, 128, 104
107, 104, 99, 113
108, 100, 103, 103
117, 115, 102, 105
113, 98, 111, 129
120, 94, 102, 106
103, 103, 99, 107
93, 113, 106, 105
97, 116, 127, 114
93, 106, 113, 96
107, 102, 118, 88
109, 92, 105, 104
97, 90, 112, 96
112, 119, 109, 83
116, 127, 95, 118
114, 119, 112, 104
103, 102, 114, 120
105, 116, 110, 115
110, 91, 104, 110
106, 91, 105, 105
127, 105, 104, 110
111, 122, 126, 125
109, 121, 113, 106
108, 113, 109, 124
128, 109, 95, 103
114, 126, 117, 118
116, 139, 115, 100
115, 109, 123, 106
121, 121, 117, 127
136, 121, 144, 124
112, 125, 121, 111
127, 116, 135, 96
116, 119, 107, 107
92, 100, 120, 109
121, 111, 118, 116
107, 107, 123, 126
103, 111, 106, 120
123, 126, 109, 110
119, 99, 108, 95
109, 126, 102, 95
101, 108, 97, 106
102, 97, 107, 119
127, 119, 101, 103
134, 116, 91, 99
121, 118, 120, 99
89, 109, 94, 96
105, 107, 107, 116
125, 129, 125, 95
99, 112, 96, 89
93, 111, 110, 123
109, 117, 110, 95
121, 112, 93, 106
112, 93, 107, 110
99, 105, 125, 93
99, 123, 93, 116
108, 108, 116, 106
107, 110, 96, 108
83, 109, 108, 105
117, 109, 104, 105
99, 121, 112, 108
97, 103, 105, 115
110, 92, 114, 103
106, 108, 100, 97
103, 100, 105, 109
118, 102, 103, 100
102, 111, 103, 90
103, 103, 100, 130
90, 141, 112, 108
116, 93, 113, 105
104, 102, 112, 110
91, 115, 122, 94
120, 115, 103, 117
114, 115, 85, 109
110, 105, 108, 124
112, 107, 110, 78
129, 118, 96, 92
93, 93, 95, 113
92, 115, 118, 131
100, 113, 96, 118
106, 101, 91, 107
95, 85, 104, 89
109, 99, 104, 104
118, 110, 93, 109
108, 106, 108, 97
111, 123, 108, 95
112, 111, 96, 119
100, 118, 115, 105
119, 92, 107, 126
108, 117, 110, 103
102, 100, 118, 110
129, 98, 119, 111
140, 131, 115, 121
133, 127, 121, 131
120, 113, 117, 117
125, 110, 118, 139
133, 128, 142, 128
108, 140, 139, 117
106, 126, 113, 120
115, 115, 113, 103
124, 110, 100, 101
82, 114, 109, 89
103, 97, 100, 89
112, 100, 95, 96
96, 114, 111, 113
101, 102, 106, 104
89, 102, 108, 105
121, 107, 107, 101
121, 106, 110, 96
113, 118, 102, 104
97, 107, 88, 87
129, 110, 103, 113
115, 96, 105, 118
118, 118, 103, 105
107, 126, 107, 103
108, 105, 124, 107
102, 105, 106, 121
93, 115, 99, 126
110, 113, 99, 100
116, 95, 96, 89
102, 105, 102, 114
107, 100, 101, 107
98, 100, 118, 96
109, 98, 107, 114
110, 114, 94, 104
113, 115, 107, 95
120, 115, 105, 114
79, 122, 104, 108
109, 104, 102, 125
105, 113, 114, 101
102, 104, 89, 113
103, 111, 114, 119
113, 108, 115, 101
125, 111, 130, 100
107, 91, 102, 125
127, 111, 113, 98
122, 115, 100, 122
105, 95, 101, 106
114, 117, 128, 100
108, 110, 110, 121
113, 105, 120, 113
122, 112, 97, 105
100, 112, 118, 136
111, 111, 101, 112
122, 116, 111, 96
125, 129, 102, 111
96, 91, 105, 116
99, 107, 99, 83
104, 107, 93, 103
96, 116, 122, 110
104, 102, 91, 100
116, 119, 108, 107
122, 98, 130, 107
88, 98, 102, 108
117, 127, 109, 90
107, 129, 109, 94
116, 104, 121, 110
112, 98, 124, 131
104, 100, 100, 119
105, 97, 106, 121
104, 116, 105, 119
94, 115, 133, 119
126, 91, 106, 90
130, 108, 95, 105
111, 112, 108, 103
98, 99, 107, 111
103, 101, 120, 111
99, 111, 121, 89
93, 113, 110, 104
109, 107, 96, 113
124, 109, 104, 119
96, 99, 118, 121
89, 105, 124, 120
121, 130, 98, 111
109, 103, 101, 116
115, 106, 90, 116
97, 93, 98, 118
140, 124, 120, 115
98, 107, 105, 104
100, 105, 102, 120
112, 103, 107, 129
106, 99, 110, 111
121, 94, 124, 111
122, 108, 102, 103
127, 130, 100, 102
104, 107, 121, 122
119, 118, 96, 105
130, 114, 116, 128
110, 97, 83, 125
113, 111, 87, 101
98, 114, 120, 126
118, 127, 117, 108
102, 109, 109, 116
123, 103, 119, 104
109, 122, 116, 101
125, 107, 115, 128
118, 112, 102, 133
108, 122, 120, 125
102, 110, 122, 117
106, 108, 122, 116
113, 123, 113, 107
139, 126, 107, 124
86, 115, 131, 116
123, 129, 118, 131
126, 116, 128, 94
128, 143, 113, 132
137, 113, 145, 127
144, 131, 145, 147
150, 124, 130, 143
123, 156, 129, 147
150, 146, 155, 125
171, 168, 127, 163
145, 168, 147, 166
151, 147, 143, 144
141, 133, 140, 134
138, 134, 122, 130
137, 115, 137, 131
165, 124, 107, 113
125, 122, 119, 106
109, 135, 129, 91
133, 124, 143, 102
108, 118, 120, 111
130, 114, 114, 133
138, 113, 135, 100
116, 128, 143, 101
128, 129, 132, 118
128, 132, 110, 137
127, 128, 125, 148
116, 132, 137, 123
125, 138, 107, 132
126, 112, 125, 126
118, 104, 138, 125
137, 108, 126, 117
131, 132, 134, 140
135, 132, 132, 135
121, 122, 127, 139
130, 115, 123, 118
123, 124, 125, 124
122, 129, 128, 138
115, 148, 120, 132
142, 118, 119, 122
133, 126, 130, 148
137, 126, 142, 131
142, 134, 137, 129
144, 117, 131, 125
148, 121, 134, 136
128, 149, 119, 135
116, 128, 125, 112
159, 120, 143, 121
129, 131, 150, 138
126, 130, 135, 112
129, 108, 150, 126
122, 124, 116, 128
145, 122, 145, 153
140, 165, 156, 123
130, 138, 132, 121
134, 118, 143, 127
120, 121, 144, 130
124, 110, 135, 139
115, 129, 142, 111
141, 135, 117, 131
142, 125, 146, 129
128, 127, 151, 128
120, 122, 131, 141
123, 122, 153, 161
121, 130, 150, 137
149, 138, 155, 131
135, 157, 142, 146
118, 169, 128, 140
164, 146, 146, 147
147, 153, 126, 138
127, 128, 134, 132
160, 130, 116, 148
149, 147, 133, 149
150, 132, 134, 141
161, 145, 139, 154
143, 146, 154, 135
160, 151, 160, 146
132, 144, 165, 165
179, 166, 155, 159
159, 189, 153, 149
165, 152, 163, 177
173, 173, 159, 161
203, 177, 160, 200
192, 183, 205, 182
195, 199, 191, 207
176, 213, 222, 217
224, 235, 235, 228
249, 237, 255, 291
271, 307, 284, 316
291, 358, 343, 359
406, 359, 471, 464
464, 473, 486, 518
532, 606, 633, 732
688, 678, 768, 906
919, 1012, 1091, 1222
1292, 1342, 1526, 1647
1751, 1955, 2076, 2272
2458, 2555, 2802, 2979
3184, 3404, 3438, 3713
3859, 4004, 3963, 4280
4401, 4573, 4553, 4753
4789, 4773, 4871, 4927
4927, 4719, 4833, 4768
4764, 4592, 4553, 4406
4382, 4282, 4100, 3837
3773, 3823, 3538, 3566
3373, 3182, 3129, 3006
2916, 2887, 2682, 2630
2491, 2241, 2251, 2131
1980, 1784, 1748, 1576
1468, 1351, 1234, 1182
1144, 982, 963, 799
823, 728, 661, 649
613, 545, 491, 466
409, 380, 408, 377
340, 328, 278, 320
265, 278, 272, 233
245, 274, 246, 217
217, 219, 185, 220
195, 184, 183, 167
184, 191, 170, 195
186, 186, 179, 151
171, 192, 166, 153
138, 149, 135, 182
171, 166, 162, 164
154, 154, 167, 136
143, 142, 149, 141
155, 132, 151, 155
125, 138, 138, 141
137, 143, 142, 159
135, 131, 136, 131
134, 133, 139, 138
151, 145, 126, 120
145, 125, 132, 133
134, 132, 132, 131
118, 152, 159, 123
142, 119, 138, 143
128, 130, 122, 108
121, 130, 103, 110
117, 132, 109, 121
146, 129, 124, 144
139, 122, 129, 132
126, 126, 118, 119
118, 126, 122, 112
136, 126, 110, 102
121, 112, 124, 137
123, 131, 131, 119
138, 122, 119, 126
124, 115, 117, 114
115, 101, 115, 102
124, 102, 97, 113
118, 132, 107, 122
122, 111, 136, 131
99, 121, 108, 105
110, 125, 145, 137
149, 127, 129, 136
123, 132, 136, 139
111, 120, 118, 124
122, 124, 122, 117
102, 116, 132, 116
131, 109, 111, 108
123, 110, 124, 114
125, 123, 110, 134
143, 94, 126, 104
122, 101, 117, 139
124, 127, 111, 106
105, 120, 125, 99
120, 110, 117, 112
92, 127, 116, 113
123, 114, 115, 130
116, 124, 112, 112
102, 118, 100, 92
117, 109, 114, 121
121, 128, 131, 93
111, 114, 105, 93
108, 125, 105, 123
132, 110, 115, 119
114, 135, 100, 126
129, 135, 114, 129
93, 133, 114, 134
111, 115, 115, 113
111, 114, 101, 106
109, 115, 99, 102
104, 110, 133, 127
116, 119, 102, 105
88, 123, 117, 114
130, 129, 123, 92
126, 109, 110, 126
117, 98, 123, 117
106, 122, 102, 118
101, 99, 107, 98
108, 114, 125, 115
118, 94, 120, 96
125, 106, 117, 116
129, 103, 103, 98
108, 103, 98, 105
105, 130, 109, 117
102, 118, 124, 118
100, 103, 133, 109
114, 110, 128, 124
132, 107, 92, 112
130, 114, 126, 106
125, 102, 117, 135
127, 115, 119, 120
107, 121, 104, 120
112, 112, 119, 119
119, 106, 109, 108
131, 111, 125, 125
126, 136, 105, 117
140, 114, 118, 108
115, 123, 113, 123
145, 124, 134, 138
132, 147, 124, 124
118, 151, 130, 128
166
*END

*EOF
