*TYPE		=  Raw
*CLASS		=  ASCII CLASS
*SAMPLE		=   
*COMMENT	=   
*FNAME		=  1-7_2-Theta_Omega.asc
*DATE		=  11-Dec-25 15:42

*GROUP_COUNT	=  1
*GONIO		=  SmartLab(In-plane), 0.000000
*ATTACHMENT	=  Z-Phi Stage
*ASC		=  0, 0, 0.000000, 0.000000
*I_MONOCHRO	=  Soller_slit_5.0deg, 0.000000
*FILTER		=  None
*C_MONOCHRO	=  None, 0.000000
*SLIT_NAME	=  0, Incident slit
*SLIT_NAME	=  1, Receiving slit # 1
*SLIT_NAME	=  2, Receiving slit # 2
*COUNTER	=  SC-70, 0
*POS_FORMAT	=  0
*SCAN_AXIS	=  2Theta/Omega
*MEAS_MODE	=  Continuous Scanning
*TARGET		=  29
*XRAY_CHAR	=  K-ALPHA
*WAVE_LENGTH1	=  1.54059
*WAVE_LENGTH2	=  1.54441
*THICKNESS	=  0, 0.000000
*MU		=  0, 0.000000
*SCAN_MODE	=  2Theta/Omega
*SPEED_DIM	=  sec./step
*XUNIT		=  deg.
*YUNIT		=  counts
*SCALE_MODE	=  1
*REP_COUNT	=  0
*SE_COUNT	=  0
*STD_MATERIAL	=  Unknown, Unknown, 0.000000, 0.000000, 0.000000, 0.000000, 0.000000, 0.000000
*LATT_CONS	=  0, Unknown, Unknown, 0.000000, 0.000000, 0.000000, 0.000000, 0.000000, 0.000000
*SEC_COUNT	=  1
*TSPEC_SIZE	=  0
*EXTRA_SIZE	=  0
*MEMO		=   

*BEGIN
*GROUP		=  0
*START		=  20
*STOP		=  80
*STEP		=  0.01
*OFFSET		=  0.000000
*SPEED		=  0.05
*SLIT_SPEC	=  0, 1.000mm, 1, 0.000000
*SLIT_SPEC	=  1, 1.000mm, 1, 0.000000
*SLIT_SPEC	=  2, 1.000mm, 1, 0.000000
*KV		=  40
*MA		=  100
*LOW		=  0.000000
*HIGH		=  0.000000
*CTEMPER	=  0, 0.000000
*CTEMPER	=  1, 0.000000
*CTEMPER	=  2, 0.000000
*PAREX		=  0, 0.000000
*PAREX		=  1, 0.000000
*PAREX		=  2, 0.000000
*PAREX		=  3, 0.000000
*PAREX		=  4, 0.000000
*PAREX		=  5, 0.000000
*PAREX		=  6, 0.000000
*PAREX		=  7, 0.000000
*PAREX		=  8, 0.000000
*PAREX		=  9, 0.000000
*PAREX		=  10, 0.000000
*PAREX		=  11, 0.000000
*PAREX		=  12, 0.000000
*PAREX		=  13, 0.000000
*PAREX		=  14, 0.000000
*PAREX		=  15, 0.000000
*FULL_SCALE	=  49728
*INDEX		=  0, 0, 0
*COUNT		=  6001
79, 77, 95, 94
89, 99, 70, 94
85, 81, 75, 100
81, 76, 83, 87
112, 80, 85, 77
91, 72, 82, 95
90, 77, 94, 81
84, 98, 82, 80
87, 86, 89, 93
71, 66, 75, 94
66, 83, 91, 91
78, 91, 83, 69
94, 99, 76, 92
84, 88, 85, 81
75, 86, 83, 86
71, 87, 93, 108
96, 90, 92, 107
88, 95, 96, 92
96, 82, 82, 73
90, 75, 91, 84
82, 91, 89, 93
93, 90, 92, 80
81, 84, 89, 76
85, 93, 76, 83
86, 81, 79, 92
101, 80, 68, 75
87, 75, 84, 92
70, 99, 91, 87
79, 85, 85, 77
80, 73, 77, 82
83, 89, 78, 71
91, 87, 89, 96
96, 69, 77, 85
90, 82, 95, 82
81, 88, 73, 71
84, 88, 89, 95
69, 71, 77, 67
104, 88, 98, 80
97, 83, 83, 84
68, 91, 86, 84
83, 89, 88, 88
78, 59, 89, 94
90, 83, 80, 91
84, 86, 92, 86
85, 82, 75, 80
74, 87, 80, 84
85, 91, 72, 66
77, 84, 72, 88
91, 92, 91, 92
69, 93, 76, 85
80, 75, 83, 91
87, 82, 70, 76
91, 103, 93, 81
86, 101, 65, 84
87, 90, 74, 88
66, 69, 94, 79
89, 79, 104, 82
85, 85, 104, 79
86, 81, 88, 87
82, 87, 99, 87
82, 94, 76, 73
86, 66, 94, 93
80, 67, 89, 93
83, 79, 83, 84
82, 78, 80, 69
93, 79, 87, 73
94, 73, 83, 81
71, 79, 92, 75
80, 77, 67, 88
74, 91, 99, 80
86, 86, 87, 91
73, 91, 93, 89
85, 75, 80, 100
97, 90, 96, 88
97, 91, 91, 84
89, 93, 85, 78
97, 86, 99, 82
77, 76, 82, 83
87, 91, 78, 88
105, 86, 78, 92
94, 94, 99, 81
83, 109, 98, 91
100, 89, 91, 79
80, 88, 94, 79
87, 89, 98, 74
83, 101, 96, 87
83, 81, 86, 99
95, 74, 83, 84
75, 75, 85, 72
81, 98, 78, 79
92, 74, 94, 63
88, 92, 77, 93
86, 94, 79, 80
71, 88, 74, 75
85, 78, 86, 86
106, 84, 89, 80
82, 91, 100, 86
76, 84, 86, 107
81, 76, 98, 85
89, 89, 86, 66
67, 104, 77, 93
100, 71, 77, 88
80, 93, 89, 90
86, 72, 93, 85
87, 101, 88, 91
82, 85, 90, 80
78, 85, 85, 95
82, 94, 99, 90
83, 89, 81, 84
73, 96, 92, 78
97, 78, 95, 90
90, 83, 82, 79
94, 85, 91, 94
91, 104, 88, 83
101, 98, 81, 80
99, 89, 86, 96
96, 101, 85, 84
77, 94, 84, 86
97, 90, 98, 85
92, 98, 81, 80
95, 87, 80, 94
87, 108, 96, 84
93, 95, 98, 88
106, 88, 87, 89
94, 88, 121, 104
104, 82, 87, 96
100, 90, 92, 89
102, 82, 87, 107
96, 84, 96, 89
78, 99, 108, 96
117, 98, 102, 107
88, 111, 87, 103
92, 115, 106, 95
94, 95, 121, 115
94, 101, 89, 97
110, 115, 90, 118
128, 106, 99, 122
103, 112, 105, 95
109, 102, 106, 103
107, 93, 101, 104
131, 123, 99, 111
112, 108, 115, 110
118, 111, 131, 121
128, 116, 136, 119
129, 117, 121, 119
117, 135, 127, 128
133, 135, 119, 154
119, 143, 178, 160
148, 139, 131, 179
124, 114, 160, 155
154, 176, 141, 166
176, 160, 177, 202
194, 199, 173, 215
190, 188, 202, 215
187, 231, 208, 189
204, 186, 211, 239
236, 246, 220, 246
229, 240, 236, 238
238, 240, 226, 263
251, 246, 238, 275
245, 255, 245, 216
220, 226, 239, 238
224, 268, 214, 229
239, 237, 208, 198
217, 238, 206, 209
221, 209, 222, 191
202, 191, 214, 167
193, 191, 163, 173
183, 172, 180, 183
198, 187, 171, 178
160, 166, 170, 147
150, 141, 154, 145
149, 148, 143, 122
133, 137, 149, 136
115, 112, 120, 113
138, 109, 91, 114
112, 106, 126, 115
104, 128, 107, 100
101, 102, 108, 105
98, 93, 103, 94
113, 100, 94, 107
94, 91, 91, 100
102, 103, 101, 109
93, 97, 103, 86
85, 83, 94, 97
98, 96, 80, 97
103, 101, 82, 106
83, 103, 100, 104
97, 92, 81, 89
85, 83, 86, 77
100, 89, 82, 84
89, 80, 104, 80
83, 94, 78, 78
79, 92, 99, 94
81, 100, 101, 84
88, 75, 88, 84
86, 95, 105, 96
71, 93, 82, 75
87, 74, 88, 100
98, 77, 91, 108
82, 72, 84, 107
96, 71, 94, 75
96, 91, 82, 90
90, 88, 79, 97
71, 92, 56, 91
86, 84, 82, 85
82, 87, 78, 92
100, 88, 90, 80
76, 101, 74, 76
80, 80, 83, 82
61, 67, 100, 72
85, 90, 95, 89
90, 86, 90, 90
82, 97, 77, 89
82, 64, 82, 84
99, 85, 90, 84
77, 80, 76, 72
91, 79, 86, 66
75, 82, 82, 80
82, 92, 95, 95
89, 81, 72, 93
90, 79, 85, 79
74, 79, 78, 84
87, 79, 80, 90
72, 70, 92, 58
76, 82, 92, 80
100, 88, 85, 87
90, 79, 83, 104
86, 88, 89, 94
90, 89, 76, 87
68, 84, 79, 72
73, 97, 77, 82
90, 84, 88, 87
77, 89, 104, 94
100, 93, 92, 94
96, 89, 94, 92
99, 79, 82, 73
80, 91, 82, 103
82, 95, 90, 81
79, 78, 86, 106
94, 84, 79, 92
89, 88, 80, 81
90, 81, 77, 80
101, 81, 98, 93
87, 90, 105, 91
81, 73, 92, 78
101, 78, 82, 83
92, 81, 80, 75
99, 89, 91, 76
75, 82, 70, 96
84, 88, 86, 69
88, 97, 79, 76
80, 94, 89, 74
104, 80, 84, 78
65, 81, 85, 86
98, 80, 94, 83
82, 87, 68, 84
79, 83, 93, 93
78, 92, 77, 72
78, 91, 76, 78
89, 93, 79, 79
83, 90, 84, 84
95, 82, 84, 79
77, 93, 96, 73
106, 57, 91, 77
102, 97, 70, 75
73, 92, 86, 83
88, 83, 85, 86
90, 92, 86, 106
72, 80, 62, 84
99, 86, 82, 77
80, 92, 72, 92
76, 84, 80, 74
75, 80, 92, 65
74, 69, 75, 83
72, 80, 78, 81
88, 93, 95, 87
89, 100, 103, 87
81, 76, 95, 75
69, 89, 72, 75
71, 71, 81, 67
82, 83, 94, 81
79, 87, 88, 71
82, 91, 87, 91
102, 82, 83, 79
84, 86, 75, 100
77, 74, 96, 97
89, 74, 89, 89
104, 82, 77, 83
84, 91, 83, 90
72, 98, 92, 91
94, 74, 86, 82
72, 78, 67, 76
76, 79, 100, 89
74, 79, 69, 85
72, 90, 88, 85
90, 83, 78, 94
92, 78, 78, 92
85, 79, 84, 71
86, 97, 93, 93
95, 69, 85, 75
90, 79, 93, 83
91, 78, 65, 80
82, 71, 88, 68
77, 84, 94, 106
76, 80, 77, 63
94, 79, 82, 85
80, 95, 76, 98
82, 79, 93, 89
79, 71, 85, 77
100, 75, 81, 89
74, 78, 98, 84
88, 89, 88, 73
70, 81, 63, 89
84, 70, 99, 86
81, 90, 80, 72
96, 70, 86, 94
95, 70, 107, 76
90, 94, 101, 77
90, 82, 86, 76
80, 89, 82, 75
77, 83, 93, 86
88, 90, 85, 77
98, 76, 83, 90
88, 63, 91, 82
80, 103, 109, 89
85, 86, 86, 97
81, 75, 84, 90
90, 88, 111, 79
94, 95, 84, 99
92, 70, 81, 72
107, 73, 83, 81
80, 79, 82, 76
82, 85, 83, 94
87, 89, 87, 77
93, 94, 92, 77
85, 85, 80, 84
90, 77, 101, 80
87, 60, 99, 74
79, 86, 96, 93
86, 105, 89, 96
97, 96, 86, 105
90, 81, 69, 85
81, 88, 84, 72
86, 70, 80, 75
93, 101, 89, 84
95, 87, 73, 101
72, 76, 89, 83
84, 95, 92, 96
90, 87, 88, 87
84, 77, 91, 101
81, 97, 76, 93
56, 87, 69, 85
76, 82, 90, 93
81, 81, 78, 82
100, 91, 91, 85
103, 91, 81, 80
93, 75, 87, 90
102, 94, 85, 92
82, 87, 105, 86
87, 90, 84, 91
69, 87, 76, 87
81, 92, 96, 79
95, 89, 93, 93
83, 100, 81, 77
73, 81, 100, 96
75, 77, 87, 92
67, 106, 83, 76
78, 73, 86, 97
76, 88, 88, 85
101, 90, 73, 86
85, 72, 77, 77
95, 76, 77, 93
100, 66, 96, 76
101, 69, 104, 89
89, 79, 78, 105
92, 90, 82, 91
91, 99, 86, 90
74, 98, 91, 92
84, 101, 96, 93
100, 101, 79, 95
94, 108, 77, 73
88, 83, 90, 94
82, 84, 79, 93
87, 90, 80, 95
85, 95, 88, 105
91, 96, 96, 98
79, 92, 74, 89
93, 95, 97, 104
104, 102, 81, 94
95, 114, 84, 112
109, 108, 109, 93
100, 88, 81, 109
112, 108, 110, 98
97, 109, 119, 108
123, 100, 106, 108
102, 127, 111, 95
101, 89, 108, 132
126, 117, 137, 132
122, 103, 108, 122
111, 103, 113, 131
134, 118, 111, 116
113, 126, 116, 115
127, 126, 147, 124
100, 118, 129, 112
110, 108, 124, 130
109, 133, 131, 113
117, 125, 120, 115
110, 109, 117, 110
110, 89, 92, 102
130, 104, 104, 101
97, 100, 104, 96
94, 102, 93, 105
92, 84, 97, 99
110, 93, 104, 103
93, 94, 96, 89
83, 75, 94, 84
89, 84, 95, 100
95, 88, 81, 92
94, 76, 84, 91
102, 90, 95, 82
103, 95, 93, 83
100, 98, 105, 94
82, 87, 91, 88
80, 80, 90, 77
71, 79, 90, 95
79, 104, 93, 78
86, 77, 81, 94
89, 79, 97, 88
86, 93, 93, 79
95, 88, 88, 65
89, 84, 89, 91
81, 78, 86, 88
79, 85, 98, 92
78, 77, 99, 79
96, 79, 87, 94
77, 92, 92, 88
94, 92, 118, 103
93, 78, 96, 81
95, 93, 84, 95
94, 71, 87, 78
81, 83, 89, 87
89, 79, 79, 79
91, 99, 86, 96
101, 81, 85, 91
82, 88, 80, 97
97, 87, 80, 80
84, 84, 88, 90
78, 83, 95, 77
79, 74, 79, 83
76, 91, 82, 95
87, 71, 92, 75
75, 96, 86, 85
96, 81, 80, 86
94, 87, 79, 76
86, 80, 92, 78
82, 83, 82, 85
92, 84, 75, 80
95, 82, 88, 107
66, 84, 67, 94
70, 106, 94, 80
96, 71, 84, 67
86, 93, 99, 93
107, 63, 82, 105
81, 99, 82, 85
62, 81, 92, 73
67, 85, 78, 99
86, 92, 85, 83
105, 90, 109, 81
88, 71, 80, 97
86, 81, 86, 101
92, 100, 87, 90
93, 95, 108, 84
76, 81, 103, 87
87, 77, 72, 90
83, 87, 80, 94
87, 87, 87, 84
67, 78, 97, 82
73, 100, 77, 84
87, 78, 82, 76
80, 98, 87, 84
92, 98, 102, 66
79, 77, 77, 101
91, 83, 85, 69
78, 100, 76, 74
77, 84, 81, 94
74, 89, 92, 93
86, 85, 85, 87
95, 100, 82, 102
94, 78, 83, 75
78, 87, 85, 77
92, 91, 86, 78
75, 94, 112, 83
96, 90, 89, 84
94, 95, 91, 86
81, 91, 79, 100
102, 88, 97, 94
90, 108, 71, 92
84, 89, 79, 99
82, 72, 89, 73
91, 87, 89, 97
85, 82, 98, 80
75, 73, 62, 86
82, 94, 68, 77
99, 82, 94, 91
96, 79, 85, 75
88, 69, 79, 102
83, 77, 93, 94
81, 88, 87, 83
95, 80, 102, 76
72, 81, 72, 80
71, 82, 78, 87
83, 76, 73, 68
82, 82, 77, 80
76, 86, 89, 96
83, 94, 88, 78
97, 85, 95, 92
82, 93, 77, 81
78, 100, 100, 80
97, 72, 103, 81
90, 78, 91, 83
75, 90, 91, 75
90, 67, 81, 89
99, 86, 96, 106
106, 79, 110, 90
86, 82, 102, 83
100, 98, 83, 88
105, 103, 81, 83
79, 78, 80, 71
66, 91, 77, 89
78, 86, 91, 80
102, 90, 75, 69
85, 96, 103, 83
89, 90, 70, 85
96, 83, 81, 94
87, 73, 86, 97
87, 81, 95, 92
65, 91, 83, 81
87, 92, 92, 89
101, 105, 96, 93
80, 108, 101, 79
74, 96, 87, 98
82, 98, 97, 113
91, 97, 81, 95
77, 90, 94, 97
88, 99, 101, 79
70, 115, 87, 101
86, 90, 100, 93
90, 78, 89, 99
113, 85, 106, 88
79, 104, 82, 92
86, 86, 108, 106
82, 85, 91, 114
96, 103, 82, 97
96, 82, 100, 95
112, 79, 102, 105
125, 120, 97, 111
115, 116, 110, 112
101, 94, 114, 104
101, 119, 112, 106
105, 86, 113, 104
104, 94, 129, 102
106, 97, 117, 85
106, 116, 94, 96
88, 101, 108, 104
112, 109, 108, 105
120, 104, 107, 109
109, 111, 96, 121
121, 99, 95, 97
99, 141, 101, 100
110, 97, 113, 100
123, 115, 117, 91
123, 138, 95, 129
110, 96, 115, 108
104, 117, 121, 116
90, 104, 96, 112
115, 102, 102, 117
106, 110, 92, 103
94, 100, 97, 102
118, 110, 116, 114
105, 124, 115, 119
121, 110, 117, 116
104, 117, 108, 112
119, 105, 125, 102
95, 115, 115, 120
109, 114, 135, 114
120, 118, 119, 127
119, 123, 112, 140
116, 126, 137, 112
104, 132, 109, 109
133, 108, 112, 118
141, 123, 136, 132
125, 122, 120, 122
123, 144, 135, 121
120, 136, 125, 140
141, 141, 154, 148
145, 147, 172, 148
170, 167, 179, 193
189, 206, 221, 206
217, 252, 288, 295
282, 330, 379, 440
452, 518, 512, 652
724, 766, 874, 989
1111, 1218, 1398, 1403
1526, 1614, 1695, 1739
1758, 1822, 1847, 1890
1876, 2072, 1927, 1983
1944, 1838, 1866, 1798
1728, 1646, 1619, 1499
1488, 1317, 1203, 1154
1068, 986, 916, 876
777, 685, 676, 575
541, 476, 433, 388
381, 351, 310, 257
270, 221, 230, 220
201, 166, 192, 171
163, 165, 140, 171
123, 155, 128, 134
130, 124, 146, 127
133, 117, 148, 121
142, 123, 121, 111
124, 125, 112, 100
132, 121, 119, 95
109, 114, 97, 94
94, 117, 113, 110
130, 112, 122, 96
113, 111, 107, 110
96, 100, 99, 112
106, 99, 98, 93
113, 112, 112, 121
98, 93, 98, 98
97, 102, 108, 95
107, 111, 108, 103
89, 86, 109, 92
94, 98, 92, 105
107, 100, 102, 90
94, 99, 102, 117
86, 83, 103, 89
121, 93, 99, 96
92, 101, 99, 86
101, 87, 84, 108
104, 85, 83, 85
94, 95, 88, 88
93, 79, 100, 104
103, 105, 103, 96
86, 95, 95, 94
103, 101, 97, 82
99, 103, 98, 93
112, 96, 91, 102
86, 92, 96, 90
100, 93, 105, 100
92, 108, 92, 91
79, 84, 93, 99
79, 110, 109, 88
105, 87, 108, 85
96, 97, 83, 94
102, 75, 99, 103
95, 93, 79, 92
100, 86, 87, 94
78, 93, 96, 93
90, 88, 69, 99
84, 107, 91, 84
96, 90, 93, 77
98, 88, 99, 93
93, 81, 91, 94
94, 94, 90, 76
97, 95, 90, 102
99, 88, 96, 104
80, 80, 86, 106
90, 94, 90, 85
79, 96, 96, 95
99, 78, 110, 89
89, 87, 97, 93
96, 90, 93, 102
83, 91, 84, 105
74, 109, 106, 85
88, 90, 94, 88
106, 89, 79, 82
84, 92, 80, 90
104, 84, 102, 90
79, 86, 108, 86
87, 82, 85, 80
83, 91, 96, 85
101, 83, 106, 103
100, 87, 86, 99
109, 85, 100, 87
100, 77, 98, 96
90, 76, 92, 91
123, 84, 88, 92
99, 92, 83, 78
74, 88, 97, 97
82, 72, 68, 94
86, 96, 84, 95
97, 88, 85, 93
88, 87, 90, 92
88, 90, 100, 75
83, 84, 91, 80
82, 87, 77, 98
104, 99, 79, 76
105, 98, 93, 84
99, 109, 100, 85
102, 82, 102, 99
90, 93, 92, 101
95, 85, 99, 90
92, 100, 108, 118
79, 88, 91, 76
96, 93, 93, 97
105, 89, 78, 101
80, 88, 91, 92
97, 74, 88, 109
88, 79, 103, 89
88, 82, 92, 92
81, 106, 76, 96
71, 92, 95, 113
90, 78, 87, 82
103, 84, 86, 87
83, 76, 95, 98
88, 78, 84, 93
99, 80, 76, 79
75, 92, 98, 99
86, 70, 86, 109
91, 91, 94, 88
74, 87, 76, 108
94, 86, 99, 86
80, 101, 99, 97
80, 82, 93, 113
99, 94, 102, 90
82, 104, 85, 95
69, 88, 92, 84
97, 97, 89, 97
98, 82, 87, 101
96, 75, 73, 85
76, 84, 85, 100
74, 88, 96, 96
84, 104, 82, 93
85, 105, 82, 106
81, 95, 103, 88
62, 75, 87, 115
91, 79, 92, 96
91, 92, 79, 94
95, 106, 103, 92
86, 88, 107, 111
84, 96, 103, 90
95, 91, 98, 94
97, 99, 83, 103
90, 103, 89, 101
76, 79, 83, 89
97, 95, 84, 81
91, 96, 90, 82
87, 95, 86, 74
83, 82, 75, 75
94, 97, 99, 78
87, 89, 101, 85
84, 106, 98, 94
70, 100, 94, 95
96, 95, 83, 95
86, 89, 78, 79
82, 91, 84, 101
95, 97, 93, 93
87, 87, 76, 98
91, 102, 69, 100
63, 77, 88, 94
87, 85, 97, 89
87, 89, 99, 84
84, 81, 95, 75
94, 84, 85, 98
92, 96, 83, 74
104, 85, 68, 81
82, 82, 106, 77
93, 88, 65, 82
93, 82, 101, 77
89, 94, 100, 98
66, 94, 81, 96
94, 94, 91, 87
92, 88, 95, 84
70, 93, 106, 97
103, 88, 94, 99
104, 100, 103, 93
92, 88, 82, 86
99, 99, 92, 108
75, 94, 77, 100
96, 87, 86, 104
94, 108, 97, 108
80, 98, 92, 99
98, 99, 95, 100
96, 105, 96, 88
91, 88, 92, 83
99, 88, 104, 77
84, 95, 86, 79
78, 73, 91, 89
83, 86, 94, 92
78, 87, 86, 97
83, 90, 100, 84
84, 99, 78, 76
83, 75, 87, 87
82, 95, 77, 93
82, 96, 73, 99
82, 93, 101, 89
73, 83, 94, 77
96, 105, 95, 84
102, 97, 89, 104
84, 108, 87, 75
100, 93, 104, 85
97, 92, 94, 92
77, 94, 86, 90
78, 86, 98, 94
95, 82, 99, 79
92, 82, 91, 86
94, 82, 93, 94
106, 84, 93, 81
85, 97, 78, 96
92, 89, 89, 107
88, 92, 99, 95
94, 106, 98, 91
82, 84, 70, 93
75, 103, 91, 101
83, 94, 95, 111
94, 105, 120, 76
82, 85, 90, 85
94, 75, 90, 84
86, 88, 102, 97
98, 86, 73, 93
93, 99, 96, 94
100, 76, 88, 93
95, 99, 102, 101
95, 84, 111, 72
93, 96, 104, 94
88, 99, 102, 91
99, 105, 104, 78
96, 109, 93, 82
102, 104, 85, 89
85, 100, 100, 100
72, 100, 78, 89
92, 106, 105, 97
108, 108, 76, 94
88, 81, 98, 92
106, 96, 104, 85
79, 96, 85, 102
81, 94, 97, 89
91, 86, 92, 87
101, 79, 110, 103
96, 88, 78, 112
92, 117, 107, 96
104, 96, 95, 104
102, 102, 102, 98
87, 107, 101, 91
98, 94, 111, 97
104, 108, 83, 100
97, 112, 101, 120
102, 93, 101, 96
93, 101, 100, 81
74, 93, 115, 85
113, 89, 91, 90
86, 85, 107, 102
86, 103, 84, 117
104, 103, 101, 94
84, 102, 90, 94
121, 96, 86, 74
94, 88, 71, 79
105, 101, 100, 116
102, 84, 103, 86
105, 96, 93, 109
87, 95, 93, 109
93, 107, 105, 81
97, 91, 133, 98
86, 100, 85, 93
96, 93, 86, 93
70, 96, 103, 102
92, 97, 94, 96
81, 94, 103, 89
75, 102, 83, 72
98, 102, 95, 91
104, 101, 93, 86
100, 97, 81, 92
93, 108, 92, 92
92, 93, 94, 85
101, 102, 83, 82
93, 108, 91, 98
108, 74, 102, 81
88, 93, 99, 88
103, 94, 97, 85
97, 74, 83, 90
80, 76, 82, 79
87, 97, 76, 105
78, 95, 84, 78
88, 98, 95, 86
82, 87, 88, 75
83, 100, 89, 84
83, 71, 81, 85
89, 83, 84, 90
101, 77, 80, 86
96, 63, 90, 89
105, 103, 97, 96
89, 86, 100, 77
88, 100, 105, 102
94, 90, 112, 104
90, 89, 93, 79
80, 81, 78, 93
95, 77, 90, 79
90, 105, 108, 79
94, 85, 83, 82
96, 81, 106, 78
95, 82, 99, 82
84, 75, 92, 81
92, 95, 96, 82
91, 82, 95, 99
97, 66, 80, 105
108, 78, 91, 93
85, 83, 92, 97
92, 89, 82, 87
85, 89, 99, 80
96, 102, 92, 93
73, 90, 110, 71
76, 91, 82, 104
103, 87, 89, 85
81, 93, 84, 107
81, 94, 97, 82
99, 95, 81, 92
90, 103, 95, 93
100, 90, 96, 99
102, 79, 97, 83
81, 83, 100, 99
82, 104, 98, 81
86, 89, 90, 71
107, 83, 90, 102
93, 108, 93, 83
105, 80, 91, 87
99, 92, 106, 86
86, 84, 111, 95
81, 86, 83, 84
88, 88, 89, 92
129, 85, 85, 95
76, 93, 92, 89
111, 90, 92, 96
88, 110, 100, 87
104, 75, 86, 108
101, 91, 91, 92
88, 108, 82, 88
92, 91, 96, 104
104, 97, 104, 90
90, 83, 68, 89
100, 103, 82, 89
89, 89, 88, 88
93, 96, 91, 101
80, 90, 106, 100
107, 100, 102, 95
90, 102, 91, 72
82, 96, 73, 79
88, 108, 86, 91
66, 73, 95, 87
97, 78, 86, 98
88, 93, 72, 87
97, 88, 94, 84
82, 81, 112, 92
87, 89, 90, 103
90, 75, 105, 89
93, 82, 98, 84
81, 95, 95, 87
98, 89, 71, 94
84, 87, 89, 86
84, 96, 95, 86
95, 91, 90, 86
76, 96, 96, 78
101, 107, 78, 95
101, 105, 102, 97
84, 80, 90, 92
103, 102, 91, 87
86, 85, 98, 80
89, 83, 86, 85
84, 93, 89, 113
96, 82, 93, 86
74, 100, 98, 98
82, 90, 70, 95
92, 99, 102, 84
77, 92, 108, 86
96, 94, 87, 78
102, 81, 99, 112
86, 87, 84, 89
76, 78, 88, 86
95, 87, 88, 84
87, 98, 86, 92
100, 95, 83, 86
76, 82, 84, 91
84, 112, 93, 78
83, 90, 95, 88
84, 102, 88, 101
99, 90, 101, 96
74, 72, 70, 87
72, 82, 85, 89
94, 96, 73, 89
86, 111, 91, 96
117, 87, 81, 98
90, 93, 90, 96
99, 85, 91, 100
78, 98, 83, 88
94, 116, 101, 87
87, 83, 96, 101
97, 106, 106, 98
89, 103, 100, 74
76, 91, 81, 92
93, 87, 97, 81
104, 87, 101, 76
93, 99, 98, 101
105, 88, 107, 73
75, 85, 80, 95
101, 79, 95, 100
87, 103, 89, 123
78, 87, 95, 88
100, 77, 103, 101
93, 99, 94, 98
100, 88, 79, 91
80, 83, 87, 96
83, 85, 99, 93
83, 101, 73, 91
78, 70, 94, 82
90, 77, 87, 90
102, 97, 70, 101
101, 101, 85, 85
98, 96, 99, 94
83, 84, 91, 95
106, 92, 96, 87
97, 87, 94, 94
95, 90, 102, 84
85, 83, 99, 92
90, 106, 83, 96
79, 89, 96, 86
109, 102, 80, 100
84, 108, 91, 88
93, 88, 102, 90
110, 99, 94, 107
95, 87, 85, 101
103, 83, 78, 91
81, 89, 94, 100
98, 83, 96, 93
95, 98, 82, 101
90, 91, 93, 101
103, 98, 96, 85
97, 85, 84, 90
86, 92, 86, 116
111, 84, 94, 90
83, 90, 102, 97
97, 102, 83, 113
90, 85, 112, 85
113, 74, 101, 87
81, 102, 81, 106
91, 112, 84, 84
88, 80, 95, 91
79, 93, 94, 93
85, 113, 84, 90
102, 83, 97, 115
83, 97, 91, 82
93, 94, 82, 100
90, 85, 79, 101
95, 87, 93, 85
107, 94, 86, 84
84, 104, 107, 97
104, 91, 102, 76
82, 105, 88, 90
84, 90, 92, 102
88, 77, 105, 100
88, 93, 102, 111
81, 96, 90, 114
69, 91, 95, 99
79, 81, 87, 90
100, 86, 95, 84
100, 98, 93, 94
87, 89, 75, 89
106, 99, 83, 91
101, 110, 78, 81
100, 85, 97, 89
110, 76, 77, 88
80, 81, 75, 87
97, 97, 88, 85
71, 82, 97, 103
86, 95, 88, 104
79, 101, 92, 87
89, 89, 94, 94
84, 98, 88, 83
96, 77, 80, 81
85, 111, 92, 115
107, 90, 108, 85
100, 92, 87, 82
91, 98, 96, 75
87, 95, 90, 116
98, 85, 94, 102
101, 99, 99, 81
94, 101, 84, 95
89, 95, 93, 81
89, 75, 92, 89
101, 92, 96, 99
100, 93, 94, 91
82, 101, 83, 87
87, 102, 99, 89
74, 93, 94, 101
96, 91, 87, 90
87, 88, 110, 94
82, 99, 75, 96
86, 103, 100, 89
91, 96, 86, 87
102, 97, 106, 76
69, 112, 96, 94
82, 97, 112, 93
102, 101, 103, 89
91, 125, 89, 108
89, 89, 107, 89
93, 102, 90, 85
95, 90, 89, 98
87, 88, 110, 99
94, 99, 108, 99
110, 101, 97, 115
109, 102, 108, 92
88, 131, 117, 128
99, 109, 105, 101
101, 118, 110, 107
113, 114, 101, 121
117, 94, 111, 90
98, 115, 110, 121
101, 108, 111, 109
99, 106, 91, 109
106, 95, 94, 89
103, 91, 105, 100
98, 113, 111, 93
110, 112, 104, 87
94, 109, 97, 95
103, 81, 98, 83
100, 105, 101, 100
87, 88, 101, 103
84, 103, 85, 99
94, 93, 85, 99
89, 91, 89, 104
82, 71, 86, 110
93, 95, 97, 103
94, 88, 98, 102
96, 82, 100, 102
93, 105, 97, 103
84, 107, 96, 78
77, 87, 94, 86
88, 97, 92, 92
87, 91, 92, 71
83, 95, 82, 90
114, 87, 87, 104
107, 86, 98, 94
87, 102, 81, 92
96, 107, 90, 94
92, 82, 66, 94
97, 80, 97, 101
100, 100, 91, 95
86, 97, 96, 100
66, 94, 103, 103
102, 96, 101, 85
80, 94, 81, 116
100, 90, 86, 89
92, 102, 88, 94
98, 87, 88, 98
91, 94, 106, 104
73, 84, 91, 103
91, 94, 99, 88
83, 78, 107, 97
92, 92, 101, 89
99, 109, 85, 83
72, 82, 103, 86
93, 104, 101, 84
104, 102, 79, 96
93, 96, 86, 85
90, 96, 104, 99
115, 95, 105, 95
84, 86, 95, 87
96, 95, 87, 96
86, 107, 88, 112
70, 84, 113, 99
70, 85, 85, 83
113, 91, 86, 90
71, 100, 82, 96
87, 92, 91, 106
95, 88, 88, 93
95, 81, 94, 101
93, 106, 100, 83
100, 98, 94, 88
88, 92, 93, 85
85, 99, 92, 86
94, 108, 79, 105
91, 91, 97, 82
91, 93, 96, 89
87, 100, 106, 92
89, 106, 107, 93
89, 96, 88, 99
95, 94, 92, 96
86, 103, 85, 96
70, 110, 87, 102
89, 74, 119, 88
91, 97, 93, 103
83, 119, 89, 77
103, 94, 91, 115
102, 87, 80, 117
103, 96, 97, 87
86, 87, 87, 93
104, 82, 84, 89
87, 103, 82, 98
107, 98, 87, 82
100, 78, 93, 105
90, 86, 124, 98
67, 95, 94, 90
99, 103, 89, 103
77, 103, 84, 85
76, 85, 91, 97
93, 88, 84, 87
95, 96, 96, 102
88, 80, 98, 108
99, 93, 89, 93
96, 81, 82, 91
101, 97, 79, 107
105, 84, 81, 97
101, 100, 96, 93
89, 101, 92, 90
102, 89, 99, 94
97, 90, 89, 102
89, 95, 103, 101
97, 86, 88, 93
86, 84, 96, 91
82, 96, 85, 85
81, 88, 108, 102
90, 92, 83, 97
85, 101, 83, 88
99, 102, 93, 88
86, 96, 89, 89
99, 98, 93, 94
102, 109, 88, 90
107, 103, 98, 87
89, 93, 105, 88
85, 86, 97, 110
95, 85, 111, 86
84, 86, 82, 86
95, 93, 88, 110
103, 94, 114, 89
91, 97, 87, 97
83, 78, 83, 83
100, 104, 97, 109
100, 75, 95, 92
94, 94, 89, 94
89, 84, 102, 84
109, 85, 105, 95
94, 85, 87, 76
85, 108, 88, 100
104, 94, 106, 80
82, 93, 98, 101
107, 103, 87, 107
91, 118, 88, 75
102, 83, 88, 90
77, 113, 100, 86
93, 86, 82, 87
96, 111, 89, 97
96, 118, 87, 88
86, 82, 94, 111
94, 89, 115, 101
101, 91, 89, 87
81, 84, 116, 108
99, 81, 103, 82
98, 96, 98, 88
114, 96, 97, 99
95, 108, 88, 102
94, 92, 99, 82
97, 106, 103, 96
113, 105, 98, 81
96, 98, 72, 77
104, 88, 88, 87
100, 88, 93, 93
89, 80, 117, 93
97, 91, 88, 100
112, 92, 83, 83
98, 95, 93, 103
90, 77, 100, 82
104, 104, 74, 108
100, 94, 102, 91
83, 88, 84, 97
101, 99, 98, 94
106, 83, 98, 105
73, 93, 89, 100
96, 76, 87, 120
86, 114, 88, 84
106, 82, 89, 103
104, 94, 85, 88
109, 102, 73, 98
102, 81, 104, 95
90, 98, 109, 77
108, 108, 105, 97
106, 89, 105, 85
83, 104, 87, 110
99, 111, 93, 86
69, 94, 81, 116
100, 77, 100, 88
91, 122, 104, 104
110, 102, 101, 77
117, 93, 95, 106
99, 101, 103, 101
92, 103, 124, 106
100, 90, 93, 115
102, 97, 110, 98
101, 111, 118, 103
106, 92, 125, 104
108, 113, 110, 99
121, 107, 123, 122
116, 92, 108, 93
88, 95, 100, 88
91, 88, 97, 100
107, 88, 83, 86
96, 104, 98, 78
99, 102, 98, 101
98, 91, 117, 103
104, 103, 83, 87
77, 78, 96, 107
98, 94, 84, 94
77, 77, 93, 110
99, 78, 81, 99
80, 91, 77, 98
92, 89, 98, 101
101, 91, 102, 106
86, 120, 93, 102
94, 109, 90, 88
94, 97, 95, 91
86, 112, 103, 97
98, 98, 94, 110
93, 96, 91, 90
85, 93, 109, 107
98, 112, 102, 94
98, 110, 110, 102
99, 82, 85, 82
96, 101, 97, 104
95, 93, 112, 93
118, 115, 93, 88
96, 109, 88, 97
96, 85, 93, 98
87, 79, 102, 108
100, 104, 96, 104
118, 97, 78, 98
113, 85, 101, 104
86, 111, 123, 86
112, 108, 93, 119
102, 101, 98, 98
105, 95, 98, 76
98, 101, 113, 116
91, 106, 89, 99
109, 90, 84, 113
108, 94, 103, 107
93, 88, 96, 102
108, 101, 84, 117
104, 102, 115, 103
107, 104, 98, 97
96, 86, 104, 109
96, 87, 92, 97
105, 129, 113, 111
106, 98, 93, 99
107, 112, 89, 116
100, 94, 94, 103
107, 101, 104, 99
114, 110, 88, 94
104, 95, 98, 110
86, 123, 118, 115
99, 93, 113, 108
119, 105, 112, 98
110, 90, 81, 100
108, 114, 95, 101
116, 110, 104, 97
120, 102, 103, 123
100, 97, 112, 111
97, 104, 104, 98
104, 116, 112, 116
104, 123, 99, 131
94, 102, 113, 108
103, 115, 109, 117
93, 102, 92, 100
108, 100, 93, 121
125, 113, 122, 104
117, 93, 117, 108
114, 121, 108, 114
104, 121, 144, 146
128, 124, 132, 128
122, 120, 141, 149
132, 136, 143, 136
139, 146, 151, 159
153, 182, 171, 167
196, 190, 176, 195
241, 219, 212, 249
280, 246, 293, 300
335, 389, 401, 446
471, 520, 605, 595
716, 788, 794, 890
969, 984, 1095, 1118
1244, 1191, 1295, 1339
1278, 1364, 1419, 1464
1322, 1411, 1366, 1360
1298, 1357, 1319, 1260
1315, 1239, 1207, 1229
1173, 1115, 1092, 1049
1008, 963, 896, 950
874, 856, 893, 782
759, 741, 731, 712
639, 631, 565, 574
448, 449, 478, 436
402, 333, 334, 316
295, 282, 253, 220
244, 206, 208, 165
195, 188, 172, 180
159, 148, 147, 148
140, 143, 137, 134
150, 139, 132, 112
120, 133, 119, 125
112, 108, 117, 106
121, 110, 101, 104
121, 115, 104, 123
109, 105, 116, 114
117, 119, 121, 102
104, 114, 100, 123
96, 133, 104, 99
93, 90, 109, 105
119, 126, 103, 93
105, 123, 90, 126
105, 90, 100, 91
128, 108, 105, 120
117, 111, 103, 103
89, 93, 114, 103
106, 87, 98, 110
125, 104, 90, 89
104, 96, 115, 99
103, 99, 87, 96
88, 105, 96, 111
115, 101, 115, 90
107, 102, 109, 113
100, 104, 101, 132
95, 110, 95, 104
86, 118, 83, 88
99, 95, 90, 116
109, 109, 79, 110
92, 112, 98, 107
109, 101, 107, 115
90, 107, 111, 116
107, 110, 111, 117
93, 103, 107, 99
115, 100, 109, 109
108, 120, 104, 69
109, 109, 108, 110
122, 115, 95, 86
105, 116, 105, 108
112, 102, 95, 90
125, 90, 109, 120
122, 98, 97, 101
123, 108, 103, 92
107, 101, 103, 104
107, 127, 113, 106
97, 97, 97, 88
97, 103, 90, 87
97, 103, 131, 87
121, 106, 100, 91
126, 110, 110, 119
107, 99, 110, 93
110, 117, 110, 83
84, 116, 107, 94
96, 105, 129, 104
112, 93, 117, 106
95, 99, 113, 102
90, 113, 107, 89
135, 114, 104, 101
105, 99, 101, 117
117, 97, 104, 107
95, 99, 85, 100
94, 106, 110, 98
93, 105, 95, 113
120, 82, 104, 96
86, 115, 108, 78
104, 105, 101, 83
96, 107, 86, 87
119, 96, 83, 116
103, 107, 98, 95
99, 102, 108, 122
89, 90, 96, 106
95, 114, 104, 104
98, 105, 102, 110
110, 91, 95, 104
113, 107, 89, 101
97, 106, 104, 91
96, 110, 111, 98
103, 92, 99, 93
95, 100, 86, 122
94, 93, 90, 94
94, 100, 97, 89
91, 88, 103, 104
100, 100, 89, 101
106, 109, 98, 109
102, 101, 125, 103
99, 107, 109, 125
86, 113, 108, 104
100, 89, 92, 117
123, 105, 116, 104
102, 101, 70, 104
112, 117, 109, 103
109, 104, 98, 102
109, 104, 88, 95
110, 83, 102, 92
102, 100, 97, 105
94, 105, 117, 98
102, 116, 81, 105
102
*END

*EOF
