*TYPE		=  Raw
*CLASS		=  ASCII CLASS
*SAMPLE		=   
*COMMENT	=   
*FNAME		=  1-8_2-Theta_Omega.asc
*DATE		=  11-Dec-25 15:50

*GROUP_COUNT	=  1
*GONIO		=  SmartLab(In-plane), 0.000000
*ATTACHMENT	=  Z-Phi Stage
*ASC		=  0, 0, 0.000000, 0.000000
*I_MONOCHRO	=  Soller_slit_5.0deg, 0.000000
*FILTER		=  None
*C_MONOCHRO	=  None, 0.000000
*SLIT_NAME	=  0, Incident slit
*SLIT_NAME	=  1, Receiving slit # 1
*SLIT_NAME	=  2, Receiving slit # 2
*COUNTER	=  SC-70, 0
*POS_FORMAT	=  0
*SCAN_AXIS	=  2Theta/Omega
*MEAS_MODE	=  Continuous Scanning
*TARGET		=  29
*XRAY_CHAR	=  K-ALPHA
*WAVE_LENGTH1	=  1.54059
*WAVE_LENGTH2	=  1.54441
*THICKNESS	=  0, 0.000000
*MU		=  0, 0.000000
*SCAN_MODE	=  2Theta/Omega
*SPEED_DIM	=  sec./step
*XUNIT		=  deg.
*YUNIT		=  counts
*SCALE_MODE	=  1
*REP_COUNT	=  0
*SE_COUNT	=  0
*STD_MATERIAL	=  Unknown, Unknown, 0.000000, 0.000000, 0.000000, 0.000000, 0.000000, 0.000000
*LATT_CONS	=  0, Unknown, Unknown, 0.000000, 0.000000, 0.000000, 0.000000, 0.000000, 0.000000
*SEC_COUNT	=  1
*TSPEC_SIZE	=  0
*EXTRA_SIZE	=  0
*MEMO		=   

*BEGIN
*GROUP		=  0
*START		=  20
*STOP		=  80
*STEP		=  0.01
*OFFSET		=  0.000000
*SPEED		=  0.05
*SLIT_SPEC	=  0, 1.000mm, 1, 0.000000
*SLIT_SPEC	=  1, 1.000mm, 1, 0.000000
*SLIT_SPEC	=  2, 1.000mm, 1, 0.000000
*KV		=  40
*MA		=  100
*LOW		=  0.000000
*HIGH		=  0.000000
*CTEMPER	=  0, 0.000000
*CTEMPER	=  1, 0.000000
*CTEMPER	=  2, 0.000000
*PAREX		=  0, 0.000000
*PAREX		=  1, 0.000000
*PAREX		=  2, 0.000000
*PAREX		=  3, 0.000000
*PAREX		=  4, 0.000000
*PAREX		=  5, 0.000000
*PAREX		=  6, 0.000000
*PAREX		=  7, 0.000000
*PAREX		=  8, 0.000000
*PAREX		=  9, 0.000000
*PAREX		=  10, 0.000000
*PAREX		=  11, 0.000000
*PAREX		=  12, 0.000000
*PAREX		=  13, 0.000000
*PAREX		=  14, 0.000000
*PAREX		=  15, 0.000000
*FULL_SCALE	=  4567950.5
*INDEX		=  0, 0, 0
*COUNT		=  6001
98, 104, 72, 89
91, 88, 92, 111
114, 98, 77, 83
91, 89, 89, 86
86, 100, 102, 107
94, 83, 77, 85
87, 82, 83, 85
92, 98, 92, 94
95, 84, 97, 76
94, 77, 92, 109
112, 104, 75, 101
91, 81, 105, 85
91, 96, 104, 84
89, 97, 106, 97
76, 94, 81, 77
79, 78, 89, 105
88, 89, 91, 101
96, 71, 99, 90
93, 76, 64, 86
86, 103, 87, 78
91, 71, 104, 82
81, 99, 101, 58
108, 78, 82, 83
71, 91, 99, 84
88, 89, 93, 79
95, 93, 79, 86
83, 95, 81, 81
89, 102, 79, 86
73, 103, 75, 81
105, 90, 101, 70
102, 89, 89, 95
95, 85, 91, 85
96, 82, 87, 97
77, 76, 79, 82
91, 91, 96, 84
93, 63, 74, 87
90, 93, 106, 87
95, 99, 96, 85
90, 87, 92, 88
78, 90, 96, 90
97, 83, 99, 85
73, 82, 73, 105
71, 82, 106, 102
79, 81, 94, 90
103, 80, 104, 94
101, 64, 80, 93
113, 107, 81, 106
89, 86, 92, 95
99, 104, 101, 91
81, 88, 109, 91
80, 80, 113, 93
107, 106, 100, 98
90, 90, 89, 81
98, 90, 91, 104
100, 85, 91, 81
99, 88, 77, 94
77, 93, 94, 87
88, 90, 96, 89
92, 107, 97, 99
84, 108, 96, 92
81, 109, 85, 91
84, 82, 95, 98
91, 95, 81, 86
78, 86, 90, 89
103, 76, 97, 86
85, 100, 78, 95
95, 79, 93, 101
79, 72, 98, 98
94, 88, 97, 100
89, 93, 96, 87
91, 85, 94, 102
85, 85, 100, 77
103, 81, 102, 79
74, 95, 72, 84
85, 100, 93, 83
92, 96, 87, 83
97, 98, 91, 77
117, 84, 93, 102
89, 83, 95, 80
99, 102, 83, 81
83, 96, 101, 95
93, 81, 92, 91
81, 80, 97, 73
81, 91, 104, 83
95, 90, 83, 94
86, 109, 101, 97
93, 77, 81, 87
90, 75, 86, 76
88, 94, 103, 93
82, 114, 92, 102
82, 91, 76, 89
100, 81, 99, 92
86, 102, 88, 80
104, 106, 94, 88
99, 90, 97, 103
105, 97, 75, 88
82, 100, 84, 106
101, 92, 89, 86
107, 103, 82, 91
71, 98, 81, 108
101, 104, 89, 78
91, 115, 103, 91
87, 103, 92, 106
92, 102, 94, 89
95, 70, 82, 94
80, 98, 83, 97
86, 101, 82, 96
98, 95, 94, 113
92, 93, 94, 93
108, 111, 95, 80
91, 80, 101, 115
109, 108, 102, 89
113, 103, 105, 102
87, 97, 100, 99
84, 85, 98, 88
97, 102, 96, 86
108, 87, 60, 71
95, 95, 93, 74
67, 90, 90, 94
85, 97, 96, 85
91, 82, 95, 99
75, 79, 88, 112
86, 101, 96, 87
89, 92, 90, 94
90, 87, 107, 76
94, 90, 80, 91
112, 90, 86, 91
102, 93, 94, 87
85, 100, 97, 92
94, 81, 110, 80
74, 91, 101, 88
96, 114, 85, 94
90, 79, 98, 93
89, 86, 88, 94
88, 93, 94, 88
78, 101, 100, 87
79, 79, 85, 97
90, 105, 96, 111
80, 87, 83, 90
85, 93, 88, 99
85, 99, 114, 81
77, 90, 100, 86
94, 99, 108, 96
80, 114, 101, 74
88, 95, 99, 111
108, 76, 102, 93
78, 83, 87, 91
83, 74, 103, 81
79, 82, 113, 79
101, 76, 89, 77
98, 90, 93, 97
81, 86, 92, 107
96, 98, 117, 108
108, 93, 74, 89
66, 108, 90, 84
109, 91, 82, 103
102, 82, 91, 85
90, 95, 97, 103
89, 94, 104, 88
95, 98, 90, 87
80, 99, 82, 78
103, 90, 90, 91
100, 91, 106, 84
92, 87, 99, 87
100, 105, 104, 111
95, 80, 92, 96
88, 78, 97, 94
93, 93, 96, 95
106, 91, 93, 86
85, 96, 86, 92
113, 101, 107, 80
98, 84, 97, 99
85, 88, 96, 96
107, 81, 105, 88
99, 90, 92, 97
110, 94, 103, 80
75, 94, 98, 97
84, 112, 102, 73
86, 92, 93, 109
83, 116, 102, 84
96, 107, 107, 80
78, 107, 90, 98
87, 100, 77, 81
101, 90, 100, 105
94, 95, 110, 101
88, 104, 97, 93
105, 106, 96, 87
96, 93, 96, 93
94, 87, 84, 83
96, 91, 87, 81
81, 99, 78, 108
91, 81, 88, 91
99, 95, 105, 117
94, 102, 95, 102
89, 103, 99, 85
123, 101, 111, 94
106, 86, 103, 100
87, 102, 100, 98
94, 86, 90, 85
104, 97, 98, 117
100, 99, 103, 99
83, 93, 108, 105
99, 91, 103, 99
109, 87, 99, 83
72, 99, 92, 107
86, 88, 114, 108
119, 102, 98, 94
86, 105, 95, 107
103, 90, 109, 100
88, 81, 98, 100
104, 89, 93, 86
110, 94, 105, 89
109, 113, 100, 92
95, 92, 91, 114
95, 109, 116, 92
93, 102, 97, 105
111, 97, 94, 105
102, 94, 97, 103
106, 102, 93, 99
89, 97, 90, 125
95, 98, 98, 105
90, 100, 83, 95
103, 101, 103, 86
75, 89, 104, 107
85, 92, 113, 117
95, 117, 92, 103
116, 96, 123, 107
97, 95, 107, 94
91, 94, 104, 101
91, 94, 102, 102
110, 88, 93, 89
95, 101, 105, 100
92, 89, 76, 100
113, 86, 108, 95
108, 97, 86, 88
101, 100, 84, 109
92, 85, 101, 80
110, 88, 112, 108
93, 93, 95, 86
101, 94, 85, 91
97, 82, 100, 98
105, 91, 104, 83
96, 109, 103, 104
82, 101, 91, 97
93, 98, 103, 103
106, 107, 85, 98
100, 91, 87, 108
87, 80, 91, 105
85, 106, 95, 92
85, 121, 103, 108
105, 108, 110, 95
108, 93, 86, 95
109, 97, 98, 88
91, 91, 84, 99
96, 96, 103, 99
101, 117, 95, 112
88, 103, 119, 90
79, 109, 94, 105
102, 77, 86, 96
82, 81, 88, 108
118, 91, 100, 110
112, 108, 108, 88
102, 113, 97, 89
109, 92, 102, 95
90, 92, 88, 89
125, 93, 95, 94
98, 83, 97, 110
119, 108, 115, 92
99, 116, 109, 104
108, 98, 97, 109
94, 101, 102, 112
97, 110, 103, 108
136, 112, 139, 111
125, 112, 117, 113
138, 142, 138, 131
160, 164, 171, 218
287, 308, 369, 368
427, 480, 547, 555
625, 630, 711, 735
916, 867, 994, 1015
975, 1063, 1045, 929
852, 760, 698, 610
544, 449, 434, 379
345, 296, 265, 218
193, 210, 156, 153
200, 153, 141, 174
150, 169, 158, 144
135, 143, 125, 134
129, 151, 119, 158
143, 168, 119, 152
115, 156, 151, 130
148, 130, 142, 132
128, 132, 142, 139
140, 128, 145, 180
146, 140, 126, 142
148, 140, 159, 151
122, 144, 114, 150
162, 156, 137, 158
141, 144, 143, 160
135, 142, 139, 142
141, 142, 164, 119
169, 155, 142, 160
139, 154, 147, 150
179, 134, 138, 153
133, 154, 159, 156
168, 163, 150, 173
143, 176, 166, 150
156, 149, 175, 150
164, 141, 174, 163
174, 142, 181, 156
159, 162, 150, 159
182, 159, 179, 172
195, 146, 172, 179
152, 204, 195, 191
164, 209, 191, 184
197, 201, 197, 158
194, 213, 187, 192
203, 216, 208, 196
211, 215, 210, 214
270, 218, 217, 225
257, 240, 262, 232
228, 266, 296, 238
253, 286, 279, 294
301, 320, 346, 408
441, 494, 586, 654
692, 837, 954, 981
1089, 1219, 1264, 1305
1502, 1477, 1632, 1644
1794, 1708, 1706, 1613
1517, 1350, 1209, 1121
1006, 944, 826, 829
781, 780, 674, 634
708, 656, 604, 629
651, 628, 683, 699
718, 717, 712, 688
655, 659, 675, 628
656, 626, 544, 544
612, 587, 556, 582
554, 534, 566, 568
501, 549, 555, 531
587, 560, 562, 569
601, 612, 528, 581
625, 616, 597, 589
621, 661, 590, 647
667, 669, 638, 694
673, 654, 686, 715
689, 697, 721, 739
736, 686, 773, 727
739, 798, 766, 760
743, 784, 747, 802
841, 844, 844, 821
858, 859, 852, 858
859, 926, 891, 907
928, 913, 1017, 1028
1079, 996, 1108, 1087
1087, 1111, 1111, 1218
1260, 1260, 1332, 1396
1529, 1597, 1687, 1796
1962, 2228, 2364, 2564
2758, 3127, 3382, 3912
4435, 5220, 7076, 10925
18029, 26289.6, 35768.8, 42026
48563.4, 57062, 67848.7, 69576.4
85312.9, 93157.7, 98247.5, 106559
114124, 125891, 136585, 147138
159279, 172961, 186456, 190331
185475, 178237, 167731, 157551
147978, 136678, 133409, 121969
116272, 103664, 90309.3, 78822.2
65560.6, 55427.7, 45434.8, 38523.9
30725.7, 26289.6, 20312.6, 16576.9
14475.6, 10210, 7711, 5986
4723, 3932, 3117, 2799
2401, 2193, 2019, 1903
1743, 1688, 1447, 1417
1328, 1311, 1247, 1170
1159, 1080, 1017, 1063
1017, 931, 944, 898
821, 838, 748, 778
749, 740, 677, 695
657, 655, 659, 613
612, 612, 589, 568
522, 551, 527, 508
501, 571, 542, 476
448, 521, 513, 471
450, 462, 414, 435
415, 411, 417, 439
425, 411, 365, 382
384, 379, 367, 356
344, 335, 347, 354
373, 333, 354, 366
309, 340, 316, 282
332, 309, 269, 303
282, 285, 276, 260
260, 265, 258, 244
255, 262, 254, 264
204, 220, 241, 211
213, 226, 197, 221
225, 232, 226, 202
211, 205, 182, 191
185, 186, 197, 183
192, 206, 183, 183
170, 165, 178, 178
162, 163, 185, 170
159, 177, 180, 172
187, 141, 153, 167
141, 175, 129, 150
136, 140, 142, 136
144, 155, 147, 132
137, 143, 149, 121
134, 127, 141, 144
130, 140, 119, 119
156, 126, 109, 134
152, 116, 125, 133
120, 139, 115, 143
127, 129, 131, 130
130, 131, 136, 141
134, 140, 131, 113
126, 120, 132, 127
123, 139, 139, 134
127, 124, 109, 121
121, 117, 137, 125
138, 137, 114, 131
121, 116, 100, 116
126, 130, 112, 124
108, 119, 106, 111
101, 125, 114, 128
101, 128, 118, 121
106, 113, 109, 122
110, 109, 119, 108
135, 125, 112, 128
107, 112, 116, 133
133, 136, 126, 127
115, 137, 128, 129
131, 132, 126, 117
129, 117, 115, 141
119, 142, 136, 129
142, 129, 120, 133
136, 128, 134, 159
137, 169, 140, 128
130, 129, 129, 149
136, 93, 117, 127
126, 124, 115, 110
121, 117, 120, 96
116, 120, 125, 103
106, 108, 123, 109
103, 107, 115, 112
119, 111, 108, 120
130, 99, 98, 131
107, 102, 121, 125
114, 101, 125, 99
101, 109, 120, 108
100, 103, 110, 87
118, 116, 117, 117
105, 103, 106, 106
104, 122, 112, 113
120, 113, 122, 103
111, 117, 105, 96
119, 117, 102, 127
89, 121, 125, 114
114, 113, 114, 126
119, 105, 104, 114
98, 98, 97, 118
114, 121, 115, 104
106, 126, 108, 95
101, 102, 117, 111
90, 100, 106, 110
121, 122, 113, 100
119, 95, 103, 106
98, 128, 98, 86
111, 102, 118, 102
100, 142, 108, 117
133, 110, 103, 110
102, 113, 120, 117
107, 85, 118, 101
100, 105, 117, 103
122, 106, 114, 125
119, 117, 102, 93
119, 107, 118, 108
107, 100, 104, 103
92, 105, 95, 119
108, 103, 108, 114
128, 114, 105, 87
110, 122, 104, 102
91, 108, 115, 95
92, 110, 116, 109
120, 108, 108, 97
108, 118, 125, 110
139, 116, 121, 132
107, 134, 126, 102
127, 116, 104, 103
133, 108, 110, 129
121, 127, 122, 125
105, 114, 113, 93
115, 145, 120, 94
104, 114, 123, 109
112, 106, 135, 139
128, 151, 125, 148
170, 129, 143, 132
123, 126, 117, 106
127, 97, 141, 115
118, 112, 120, 124
130, 120, 106, 124
113, 124, 106, 115
96, 103, 115, 131
103, 143, 101, 121
123, 124, 114, 132
113, 132, 120, 113
125, 126, 117, 113
117, 120, 119, 107
113, 119, 96, 90
123, 103, 100, 95
113, 135, 122, 133
105, 91, 132, 127
118, 100, 125, 116
110, 123, 125, 98
114, 128, 113, 108
121, 119, 124, 107
120, 138, 94, 112
113, 119, 119, 103
91, 136, 116, 119
116, 129, 127, 117
112, 131, 129, 129
124, 126, 133, 135
114, 111, 115, 137
115, 114, 122, 125
115, 114, 112, 105
127, 110, 141, 120
101, 149, 122, 125
111, 143, 122, 121
135, 125, 124, 131
135, 131, 128, 128
136, 152, 156, 166
148, 145, 137, 149
124, 129, 153, 141
133, 193, 166, 163
162, 169, 146, 185
156, 195, 168, 181
205, 207, 235, 276
357, 579, 741, 935
1226, 1468, 1586, 1681
1624, 1457, 1204, 1067
1087, 1095, 1299, 1699
2204, 3147, 3918, 4204
4216, 3945, 3392, 2868
2230, 1868, 1614, 1581
1776, 1852, 1987, 1999
1860, 1522, 1294, 1139
798, 643, 484, 435
319, 287, 261, 226
194, 196, 174, 167
176, 176, 185, 164
153, 175, 161, 187
164, 177, 152, 137
162, 122, 158, 111
142, 166, 143, 153
142, 133, 140, 135
149, 138, 117, 140
151, 116, 113, 144
134, 100, 113, 135
116, 129, 118, 133
130, 137, 124, 124
133, 134, 124, 111
131, 136, 124, 124
113, 110, 111, 126
148, 135, 107, 125
122, 133, 105, 108
125, 116, 117, 109
125, 114, 122, 92
128, 112, 141, 131
109, 122, 117, 117
108, 123, 136, 117
133, 112, 112, 103
127, 116, 134, 119
133, 124, 121, 118
126, 132, 106, 140
142, 123, 130, 123
114, 127, 118, 135
143, 123, 131, 144
121, 122, 120, 121
122, 123, 98, 123
149, 127, 149, 134
134, 152, 109, 125
125, 142, 119, 148
133, 140, 111, 122
126, 131, 106, 120
147, 157, 119, 127
159, 129, 140, 137
144, 152, 148, 144
156, 146, 160, 155
157, 156, 159, 143
142, 141, 165, 168
168, 179, 187, 162
169, 193, 215, 235
200, 253, 279, 298
323, 342, 364, 439
475, 545, 643, 739
897, 1126, 1385, 1705
1893, 2136, 2212, 2369
2462, 2678, 2723, 2893
3049, 3228, 3308, 3517
3449, 3615, 3588, 3588
3457, 3228, 3143, 2916
2812, 2551, 2441, 2296
2089, 1909, 1818, 1634
1569, 1425, 1233, 1069
980, 885, 781, 670
589, 550, 454, 395
393, 357, 394, 357
318, 319, 298, 300
273, 287, 264, 246
224, 240, 238, 224
230, 215, 191, 201
184, 178, 201, 182
169, 151, 173, 160
152, 152, 143, 142
134, 139, 132, 143
131, 151, 130, 135
152, 143, 114, 121
113, 103, 148, 126
123, 117, 151, 110
123, 119, 130, 120
106, 117, 143, 138
108, 123, 140, 140
119, 110, 111, 111
119, 115, 119, 115
119, 134, 104, 116
151, 131, 118, 119
132, 120, 92, 104
128, 125, 102, 113
114, 127, 111, 128
118, 132, 133, 100
114, 133, 124, 130
121, 106, 115, 113
100, 104, 149, 136
114, 116, 110, 118
111, 106, 107, 105
113, 111, 101, 100
92, 111, 114, 107
127, 108, 110, 108
122, 133, 131, 115
107, 106, 107, 109
121, 117, 113, 110
105, 87, 106, 101
115, 118, 123, 118
111, 101, 96, 95
105, 99, 126, 118
119, 117, 106, 104
89, 111, 125, 129
117, 109, 106, 106
108, 105, 107, 104
127, 127, 115, 111
95, 94, 105, 103
109, 135, 89, 122
105, 107, 109, 102
101, 103, 109, 120
105, 109, 103, 102
106, 111, 129, 116
110, 105, 100, 104
105, 113, 102, 121
96, 131, 101, 108
103, 118, 87, 110
90, 108, 100, 107
107, 110, 123, 102
99, 99, 116, 133
90, 109, 122, 111
103, 97, 106, 104
93, 114, 93, 109
115, 114, 104, 94
120, 106, 111, 125
113, 122, 97, 105
116, 102, 115, 114
106, 112, 102, 124
97, 95, 108, 111
112, 101, 91, 115
111, 116, 117, 119
96, 97, 114, 101
111, 105, 122, 110
100, 116, 96, 105
116, 112, 115, 121
110, 124, 111, 116
121, 105, 109, 107
120, 107, 95, 110
109, 76, 97, 105
112, 118, 109, 107
98, 105, 109, 121
105, 120, 109, 105
118, 103, 122, 97
110, 119, 116, 119
100, 108, 114, 115
117, 126, 96, 119
116, 82, 114, 117
100, 127, 122, 115
116, 113, 112, 106
112, 112, 126, 125
112, 110, 115, 102
111, 99, 108, 81
110, 111, 98, 102
118, 115, 106, 109
110, 108, 106, 108
120, 107, 115, 110
111, 131, 93, 106
101, 122, 116, 121
112, 105, 102, 101
111, 114, 112, 110
104, 109, 100, 116
107, 101, 107, 99
89, 99, 112, 102
114, 112, 103, 94
111, 87, 127, 119
112, 123, 93, 114
105, 126, 122, 128
120, 106, 109, 103
116, 85, 110, 97
103, 109, 123, 125
122, 84, 106, 130
120, 99, 99, 114
91, 108, 110, 97
105, 83, 114, 102
124, 105, 103, 122
95, 111, 81, 109
112, 115, 100, 109
110, 106, 107, 103
110, 124, 115, 112
117, 97, 104, 115
125, 121, 119, 115
122, 132, 99, 111
116, 98, 100, 114
109, 105, 91, 118
96, 110, 115, 90
113, 99, 100, 113
113, 104, 104, 100
100, 104, 102, 117
102, 112, 95, 101
99, 105, 96, 116
111, 103, 104, 130
96, 113, 91, 118
96, 112, 102, 115
85, 117, 136, 94
108, 120, 95, 106
91, 115, 90, 114
103, 118, 106, 113
97, 112, 115, 96
112, 118, 99, 121
110, 130, 122, 120
111, 111, 109, 125
116, 120, 125, 86
128, 97, 93, 94
102, 109, 97, 104
115, 94, 110, 98
125, 115, 106, 108
105, 107, 108, 99
124, 107, 124, 112
108, 108, 124, 96
110, 105, 110, 127
115, 132, 103, 112
98, 105, 137, 122
109, 103, 125, 122
110, 104, 113, 103
107, 108, 98, 93
119, 106, 105, 133
112, 93, 113, 117
101, 109, 104, 113
96, 114, 131, 96
116, 138, 104, 104
110, 103, 108, 117
116, 114, 96, 107
83, 120, 114, 96
112, 121, 107, 104
119, 109, 120, 92
104, 114, 108, 118
100, 105, 106, 104
122, 125, 116, 110
108, 107, 123, 95
117, 102, 119, 115
101, 121, 111, 121
110, 100, 124, 110
105, 105, 127, 111
102, 96, 95, 106
109, 105, 107, 104
100, 101, 117, 91
115, 118, 105, 112
94, 105, 95, 105
96, 113, 128, 105
111, 93, 131, 129
103, 129, 105, 129
100, 106, 94, 111
123, 112, 107, 103
124, 121, 118, 125
130, 107, 106, 100
100, 108, 117, 120
124, 115, 122, 118
94, 111, 118, 112
103, 123, 109, 109
110, 100, 110, 111
96, 101, 112, 119
115, 118, 123, 98
106, 107, 108, 122
111, 93, 97, 109
108, 116, 106, 99
124, 120, 123, 123
92, 124, 79, 120
96, 99, 101, 95
106, 119, 98, 114
108, 115, 110, 113
104, 97, 90, 116
126, 110, 118, 111
131, 104, 112, 108
100, 97, 112, 121
113, 107, 95, 111
132, 108, 114, 117
125, 100, 126, 118
123, 119, 117, 101
106, 125, 88, 118
115, 111, 121, 106
129, 110, 115, 102
130, 117, 127, 139
101, 121, 99, 133
111, 93, 113, 96
121, 111, 115, 119
105, 101, 98, 129
102, 100, 102, 117
107, 93, 96, 97
109, 138, 116, 117
106, 132, 122, 122
119, 109, 105, 111
114, 117, 104, 127
110, 111, 88, 96
116, 116, 113, 113
84, 96, 124, 119
122, 111, 73, 101
104, 105, 98, 112
111, 106, 93, 102
96, 104, 115, 117
94, 108, 100, 105
109, 96, 129, 111
110, 105, 111, 134
107, 105, 101, 104
106, 96, 108, 99
96, 108, 115, 113
106, 107, 109, 123
112, 104, 112, 107
106, 104, 115, 105
109, 102, 132, 113
125, 96, 110, 114
103, 98, 122, 122
111, 100, 109, 121
106, 117, 105, 116
113, 97, 109, 109
97, 102, 121, 148
108, 97, 109, 103
92, 99, 95, 118
113, 108, 121, 119
112, 93, 112, 93
103, 119, 103, 94
110, 111, 78, 106
109, 108, 118, 122
101, 96, 109, 107
102, 115, 125, 94
109, 116, 114, 112
108, 121, 104, 113
113, 117, 88, 103
92, 112, 105, 123
110, 122, 107, 107
105, 119, 126, 102
120, 99, 106, 121
105, 108, 108, 125
116, 131, 117, 112
100, 107, 109, 104
106, 105, 98, 107
101, 95, 104, 97
122, 120, 111, 94
128, 96, 84, 91
115, 105, 102, 110
126, 124, 100, 99
100, 113, 116, 97
102, 106, 107, 88
99, 101, 115, 90
110, 134, 110, 108
139, 107, 128, 121
96, 87, 113, 113
110, 93, 121, 118
112, 124, 125, 109
110, 122, 100, 115
94, 114, 109, 103
99, 115, 100, 107
109, 104, 104, 101
116, 118, 109, 114
112, 99, 117, 114
102, 106, 134, 123
126, 120, 114, 118
110, 115, 113, 104
113, 125, 87, 104
101, 123, 115, 118
108, 111, 103, 97
115, 113, 104, 110
120, 106, 123, 114
100, 114, 95, 120
112, 121, 117, 108
134, 108, 106, 106
104, 115, 116, 94
109, 104, 124, 131
127, 90, 102, 107
108, 116, 122, 111
95, 111, 105, 120
102, 114, 108, 123
113, 124, 104, 119
138, 110, 126, 120
89, 97, 123, 120
114, 106, 117, 113
122, 110, 112, 102
131, 107, 109, 126
92, 95, 111, 89
113, 104, 118, 97
125, 107, 127, 100
92, 134, 128, 122
127, 117, 105, 136
130, 101, 116, 107
119, 102, 106, 110
105, 101, 109, 124
119, 99, 112, 102
94, 114, 104, 101
124, 111, 101, 123
119, 107, 119, 101
108, 100, 110, 106
129, 108, 106, 92
115, 97, 99, 110
106, 110, 106, 104
116, 124, 113, 105
119, 105, 123, 119
101, 95, 118, 113
109, 109, 117, 118
115, 99, 107, 108
116, 95, 113, 116
112, 116, 120, 124
120, 126, 109, 92
106, 127, 101, 111
117, 114, 111, 125
108, 122, 122, 107
120, 100, 111, 116
109, 109, 111, 101
105, 109, 125, 119
104, 106, 94, 96
117, 118, 116, 110
116, 111, 117, 121
106, 117, 111, 96
123, 106, 116, 103
110, 112, 88, 87
112, 108, 110, 104
110, 104, 101, 100
123, 109, 119, 118
125, 96, 116, 124
134, 115, 99, 126
100, 119, 113, 118
108, 134, 106, 96
107, 115, 113, 117
116, 120, 115, 110
104, 124, 103, 100
109, 96, 108, 112
112, 111, 105, 104
100, 119, 114, 109
110, 120, 95, 98
97, 128, 100, 116
119, 117, 107, 107
112, 122, 109, 108
105, 121, 121, 120
126, 114, 104, 113
113, 116, 96, 101
106, 118, 124, 104
115, 98, 102, 122
122, 99, 129, 111
119, 109, 118, 119
111, 110, 117, 116
110, 118, 136, 121
113, 109, 123, 99
120, 101, 105, 100
110, 107, 107, 126
90, 123, 113, 95
123, 101, 113, 102
103, 120, 127, 110
119, 110, 119, 99
114, 117, 121, 121
134, 124, 121, 110
117, 104, 109, 102
114, 115, 118, 146
145, 107, 90, 116
104, 112, 104, 103
128, 105, 111, 108
99, 110, 102, 108
116, 102, 113, 125
118, 110, 123, 106
107, 118, 106, 114
102, 118, 110, 107
102, 108, 103, 116
112, 112, 106, 108
113, 106, 100, 110
98, 86, 122, 116
121, 113, 95, 109
129, 96, 125, 126
125, 98, 126, 117
131, 109, 118, 103
110, 108, 108, 111
105, 104, 125, 110
103, 108, 97, 96
113, 106, 107, 106
119, 127, 109, 101
94, 112, 106, 85
107, 111, 108, 118
101, 104, 102, 125
115, 125, 112, 101
100, 110, 112, 125
115, 109, 119, 113
111, 98, 111, 117
131, 107, 121, 113
116, 112, 114, 112
114, 117, 105, 116
132, 109, 107, 96
111, 95, 121, 116
120, 103, 122, 93
112, 100, 123, 88
122, 91, 114, 112
106, 96, 107, 103
144, 106, 107, 115
98, 127, 116, 107
111, 102, 118, 113
110, 125, 113, 118
135, 104, 97, 93
104, 113, 102, 115
120, 116, 107, 112
110, 98, 114, 111
95, 128, 104, 104
114, 104, 117, 123
133, 96, 115, 116
113, 115, 132, 116
131, 103, 116, 114
110, 116, 114, 125
109, 107, 113, 121
104, 129, 110, 107
99, 131, 117, 137
109, 117, 123, 117
115, 116, 99, 132
108, 127, 102, 113
109, 122, 124, 108
106, 124, 107, 116
118, 96, 91, 109
113, 112, 111, 107
121, 120, 106, 114
119, 126, 108, 98
103, 122, 102, 97
101, 95, 128, 105
117, 114, 100, 113
119, 115, 108, 104
122, 127, 101, 104
103, 109, 98, 124
120, 104, 110, 106
131, 102, 105, 99
116, 107, 102, 111
101, 113, 103, 102
102, 125, 107, 106
116, 124, 111, 112
108, 110, 119, 93
120, 94, 111, 117
135, 110, 121, 114
105, 116, 110, 122
95, 134, 101, 116
106, 111, 125, 126
99, 108, 98, 99
125, 118, 103, 103
101, 113, 121, 122
119, 101, 108, 128
103, 119, 115, 102
110, 104, 101, 119
98, 112, 101, 101
108, 113, 108, 115
127, 109, 111, 119
112, 120, 123, 96
116, 92, 121, 113
108, 107, 116, 104
113, 108, 113, 96
115, 99, 111, 137
115, 95, 124, 118
105, 125, 128, 117
116, 110, 115, 112
95, 103, 104, 114
122, 120, 120, 125
112, 112, 111, 114
100, 107, 119, 116
107, 139, 108, 115
108, 122, 112, 122
107, 125, 121, 116
113, 112, 121, 106
126, 109, 120, 108
112, 111, 123, 114
111, 105, 94, 101
118, 124, 113, 125
95, 133, 121, 124
112, 106, 107, 117
113, 104, 104, 115
124, 124, 115, 113
115, 106, 109, 114
116, 126, 104, 118
116, 104, 126, 122
98, 82, 120, 123
122, 132, 118, 124
126, 120, 116, 134
106, 123, 132, 118
100, 117, 105, 128
123, 116, 109, 106
129, 128, 105, 127
126, 124, 124, 115
116, 124, 141, 129
124, 158, 113, 125
133, 126, 141, 134
141, 136, 144, 146
123, 150, 123, 127
133, 145, 118, 133
147, 124, 120, 115
131, 123, 121, 122
140, 123, 133, 138
163, 162, 177, 195
183, 181, 174, 188
223, 256, 259, 264
294, 270, 277, 302
307, 322, 321, 315
296, 270, 308, 318
266, 263, 286, 264
245, 213, 237, 206
210, 196, 193, 154
141, 166, 171, 163
138, 136, 133, 122
112, 130, 151, 133
145, 101, 135, 100
120, 115, 133, 137
122, 113, 113, 136
119, 142, 116, 123
125, 109, 97, 121
111, 139, 111, 121
107, 111, 122, 113
108, 142, 109, 119
112, 134, 114, 117
105, 117, 124, 96
135, 121, 116, 114
128, 136, 109, 107
113, 121, 122, 101
120, 124, 118, 108
115, 124, 128, 136
114, 111, 124, 124
115, 120, 116, 136
99, 125, 104, 118
105, 132, 125, 118
124, 126, 111, 110
131, 123, 109, 104
107, 126, 116, 109
110, 109, 122, 113
124, 115, 135, 127
123, 135, 114, 120
114, 99, 121, 130
123, 124, 122, 119
113, 114, 116, 109
131, 90, 117, 118
123, 107, 105, 102
132, 121, 118, 129
135, 124, 127, 121
131, 108, 117, 117
117, 96, 114, 110
114, 112, 116, 116
122, 128, 105, 99
130, 114, 122, 118
108, 112, 119, 130
118, 100, 105, 104
117, 123, 131, 121
113, 100, 120, 137
115, 115, 110, 118
123, 114, 125, 147
125, 126, 132, 132
142, 102, 108, 129
124, 130, 130, 126
144, 118, 113, 114
120, 160, 127, 128
125, 121, 138, 148
112, 141, 120, 110
139, 128, 136, 135
123, 119, 118, 123
114, 136, 137, 141
106, 118, 102, 120
136, 126, 149, 114
104, 124, 121, 111
111, 107, 107, 98
101, 123, 114, 94
98, 108, 114, 114
124, 127, 128, 122
107, 127, 118, 105
119, 147, 111, 115
105, 108, 113, 108
123, 125, 116, 116
127, 132, 120, 114
99, 137, 127, 106
122, 124, 117, 133
112, 121, 110, 114
119, 142, 103, 115
122, 136, 113, 134
128, 121, 128, 107
120, 121, 125, 137
117, 127, 119, 121
140, 131, 101, 116
126, 101, 127, 122
116, 124, 109, 144
92, 134, 128, 113
136, 119, 123, 139
117, 125, 110, 142
125, 130, 125, 112
114, 122, 136, 139
127, 127, 137, 133
113, 131, 118, 152
134, 145, 135, 121
121, 109, 141, 93
123, 129, 142, 154
111, 135, 114, 124
129, 147, 136, 137
127, 127, 140, 115
138, 120, 119, 135
126, 140, 147, 116
156, 136, 134, 138
148, 129, 118, 133
126, 142, 144, 130
130, 151, 131, 138
133, 161, 146, 133
141, 131, 160, 130
143, 136, 144, 162
136, 140, 173, 170
153, 177, 173, 197
192, 198, 215, 263
267, 281, 294, 315
376, 361, 361, 362
360, 373, 400, 359
407, 338, 356, 417
421, 400, 394, 381
419, 346, 316, 302
278, 270, 245, 257
222, 236, 207, 200
194, 197, 202, 192
191, 173, 170, 168
179, 170, 170, 146
137, 156, 149, 160
163, 189, 139, 140
162, 175, 156, 172
185, 152, 173, 179
156, 158, 197, 197
202, 196, 182, 194
190, 204, 197, 169
224, 232, 185, 197
212, 189, 165, 216
193, 180, 172, 196
190, 179, 168, 191
170, 175, 162, 180
180, 141, 175, 175
163, 174, 172, 193
177, 174, 162, 153
185, 179, 175, 179
159, 168, 170, 172
156, 171, 170, 170
149, 163, 209, 182
198, 162, 170, 177
164, 168, 176, 166
167, 176, 176, 177
156, 169, 157, 176
182, 183, 171, 203
164, 177, 163, 181
185, 164, 178, 173
196, 193, 177, 186
166, 182, 179, 174
187, 186, 161, 168
224, 203, 179, 183
193, 185, 185, 198
203, 196, 191, 204
197, 214, 181, 184
174, 197, 202, 197
184, 213, 189, 196
201, 189, 187, 176
211, 176, 213, 202
202, 208, 186, 200
207, 222, 212, 208
192, 211, 209, 205
218, 190, 206, 202
219, 222, 196, 208
205, 230, 214, 206
227, 206, 214, 228
197, 213, 235, 219
213, 203, 199, 203
232, 226, 211, 206
220, 216, 230, 229
222, 246, 224, 206
196, 248, 230, 243
261, 231, 237, 230
237, 249, 264, 246
254, 273, 238, 253
256, 246, 274, 241
246, 253, 263, 265
256, 266, 263, 262
270, 252, 255, 292
266, 251, 264, 269
275, 266, 283, 260
290, 270, 268, 288
291, 299, 292, 308
335, 327, 335, 316
316, 295, 344, 337
345, 371, 346, 330
358, 327, 379, 380
429, 406, 431, 482
516, 536, 572, 608
623, 630, 703, 736
770, 821, 827, 855
934, 916, 930, 968
975, 963, 1009, 991
1127, 1040, 1107, 1186
1309, 1291, 1372, 1470
1551, 1667, 1782, 2082
2336, 2671, 3218, 3988
5198, 7166, 10388, 14914
19546, 23768.1, 30305.4, 31939.8
36702.7, 39224.3, 41092.1, 44874.5
46742.3, 45294.7, 43613.7, 44454.2
43707.1, 36609.4, 37776.7, 35348.6
33480.7, 33714.2, 31893.1, 33854.3
31939.8, 33807.6, 34975, 35955.6
32686.9, 32967.1, 34087.8, 31706.3
31005.9, 30025.3, 27503.7, 24748.7
27410.3, 23301.1, 22320.5, 21013
18631.5, 19191.9, 16156.7, 15176.1
15316.2, 12701.2, 13067, 12068
10764, 9906, 8601, 7550
6599, 5635, 4894, 4258
3421, 3036, 2596, 2249
1906, 1601, 1454, 1339
1214, 1094, 994, 924
874, 870, 766, 754
714, 680, 667, 615
675, 630, 572, 549
523, 502, 510, 471
531, 495, 436, 404
398, 389, 426, 371
403, 386, 358, 363
381, 360, 340, 377
338, 322, 375, 313
311, 345, 338, 334
308, 333, 309, 293
281, 288, 295, 287
287, 287, 262, 288
284, 285, 251, 275
273, 254, 266, 288
249, 288, 256, 262
259, 245, 287, 225
228, 239, 253, 244
233, 271, 226, 210
257, 236, 250, 236
222, 230, 236, 186
218, 225, 218, 226
226, 236, 213, 224
192, 201, 221, 224
220, 195, 216, 208
201, 221, 237, 211
213, 236, 191, 197
186, 208, 191, 196
175, 210, 198, 175
194, 208, 196, 209
166, 217, 219, 196
166, 195, 178, 192
186, 179, 195, 189
200, 178, 177, 216
149, 172, 181, 204
206, 172, 178, 197
200, 196, 190, 201
185, 197, 168, 181
214, 189, 198, 186
182, 202, 188, 205
217, 176, 231, 201
202, 174, 216, 208
202, 234, 231, 224
234, 250, 271, 255
263, 295, 290, 311
361, 398, 445, 506
548, 633, 618, 668
760, 761, 867, 849
888, 970, 1012, 1033
1034, 1025, 1125, 1090
1192, 1208, 1227, 1231
1404, 1369, 1490, 1481
1612, 1619, 1734, 1688
1745, 1771, 1768, 1787
1753, 1724, 1572, 1404
1225, 1097, 963, 864
794, 803, 789, 791
747, 795, 810, 784
771, 799, 830, 781
778, 765, 708, 704
605, 547, 507, 400
318, 303, 275, 218
203, 204, 187, 181
173, 173, 177, 164
166, 186, 188, 166
153, 194, 151, 180
174, 193, 164, 164
161, 156, 139, 135
142, 170, 143, 137
168, 140, 166, 162
153, 135, 135, 140
163, 158, 128, 119
157, 127, 137, 145
132, 140, 151, 121
133, 151, 116, 147
150, 130, 146, 142
145, 127, 159, 140
138, 138, 142, 141
143, 147, 127, 132
138, 145, 139, 139
154, 140, 110, 135
140, 120, 139, 149
141, 133, 136, 137
144, 158, 113, 151
128, 112, 153, 124
126, 147, 125, 124
148, 144, 123, 139
124, 130, 141, 136
144, 124, 125, 112
134, 120, 133, 147
110, 133, 141, 118
128, 114, 127, 117
123, 140, 120, 119
122, 140, 131, 137
116, 128, 119, 128
143, 122, 150, 123
124, 137, 122, 132
115, 139, 115, 145
122, 120, 107, 126
113, 127, 131, 127
125, 125, 137, 123
129, 144, 114, 125
116, 132, 105, 133
138, 114, 142, 124
109, 119, 130, 140
123, 131, 139, 125
140, 135, 145, 119
121, 124, 115, 133
107, 136, 117, 110
130, 135, 116, 125
129, 143, 126, 115
134, 136, 126, 122
119, 122, 116, 113
118, 119, 111, 111
123, 137, 117, 114
143, 106, 111, 127
132, 114, 135, 114
133, 123, 136, 133
117, 101, 124, 128
132, 114, 129, 125
117, 143, 125, 132
108, 128, 125, 108
102, 116, 116, 131
133, 141, 136, 130
120, 138, 121, 107
134, 124, 122, 139
123, 100, 126, 133
118, 109, 135, 119
105, 120, 127, 144
102, 109, 133, 115
110, 116, 130, 123
125, 125, 114, 124
117, 131, 123, 136
122, 140, 122, 134
108, 121, 110, 132
105, 117, 130, 124
110, 123, 127, 128
131, 125, 125, 110
110, 124, 129, 116
113, 136, 117, 109
131, 117, 97, 121
118, 131, 116, 117
137, 123, 125, 117
129, 125, 125, 123
123, 144, 118, 136
139, 104, 126, 120
126, 117, 116, 121
118, 121, 135, 115
128, 120, 124, 99
132, 128, 110, 129
114, 122, 127, 143
111, 118, 115, 127
111, 124, 118, 125
151, 127, 142, 126
142, 131, 147, 117
128, 124, 141, 124
145, 122, 115, 136
126, 127, 133, 137
139, 142, 134, 127
110, 132, 116, 136
116, 119, 144, 133
121, 130, 135, 137
165, 139, 154, 154
158, 190, 183, 205
182, 237, 196, 198
191
*END

*EOF
