*TYPE		=  Raw
*CLASS		=  ASCII CLASS
*SAMPLE		=   
*COMMENT	=   
*FNAME		=  1-9_2-Theta_Omega.asc
*DATE		=  11-Dec-25 15:57

*GROUP_COUNT	=  1
*GONIO		=  SmartLab(In-plane), 0.000000
*ATTACHMENT	=  Z-Phi Stage
*ASC		=  0, 0, 0.000000, 0.000000
*I_MONOCHRO	=  Soller_slit_5.0deg, 0.000000
*FILTER		=  None
*C_MONOCHRO	=  None, 0.000000
*SLIT_NAME	=  0, Incident slit
*SLIT_NAME	=  1, Receiving slit # 1
*SLIT_NAME	=  2, Receiving slit # 2
*COUNTER	=  SC-70, 0
*POS_FORMAT	=  0
*SCAN_AXIS	=  2Theta/Omega
*MEAS_MODE	=  Continuous Scanning
*TARGET		=  29
*XRAY_CHAR	=  K-ALPHA
*WAVE_LENGTH1	=  1.54059
*WAVE_LENGTH2	=  1.54441
*THICKNESS	=  0, 0.000000
*MU		=  0, 0.000000
*SCAN_MODE	=  2Theta/Omega
*SPEED_DIM	=  sec./step
*XUNIT		=  deg.
*YUNIT		=  counts
*SCALE_MODE	=  1
*REP_COUNT	=  0
*SE_COUNT	=  0
*STD_MATERIAL	=  Unknown, Unknown, 0.000000, 0.000000, 0.000000, 0.000000, 0.000000, 0.000000
*LATT_CONS	=  0, Unknown, Unknown, 0.000000, 0.000000, 0.000000, 0.000000, 0.000000, 0.000000
*SEC_COUNT	=  1
*TSPEC_SIZE	=  0
*EXTRA_SIZE	=  0
*MEMO		=   

*BEGIN
*GROUP		=  0
*START		=  20
*STOP		=  80
*STEP		=  0.01
*OFFSET		=  0.000000
*SPEED		=  0.05
*SLIT_SPEC	=  0, 1.000mm, 1, 0.000000
*SLIT_SPEC	=  1, 1.000mm, 1, 0.000000
*SLIT_SPEC	=  2, 1.000mm, 1, 0.000000
*KV		=  40
*MA		=  100
*LOW		=  0.000000
*HIGH		=  0.000000
*CTEMPER	=  0, 0.000000
*CTEMPER	=  1, 0.000000
*CTEMPER	=  2, 0.000000
*PAREX		=  0, 0.000000
*PAREX		=  1, 0.000000
*PAREX		=  2, 0.000000
*PAREX		=  3, 0.000000
*PAREX		=  4, 0.000000
*PAREX		=  5, 0.000000
*PAREX		=  6, 0.000000
*PAREX		=  7, 0.000000
*PAREX		=  8, 0.000000
*PAREX		=  9, 0.000000
*PAREX		=  10, 0.000000
*PAREX		=  11, 0.000000
*PAREX		=  12, 0.000000
*PAREX		=  13, 0.000000
*PAREX		=  14, 0.000000
*PAREX		=  15, 0.000000
*FULL_SCALE	=  257352
*INDEX		=  0, 0, 0
*COUNT		=  6001
107, 104, 104, 108
108, 117, 105, 100
98, 113, 105, 103
112, 99, 125, 109
105, 115, 98, 102
127, 111, 122, 111
136, 118, 113, 117
107, 102, 111, 103
116, 130, 130, 101
133, 135, 123, 122
150, 127, 136, 128
120, 106, 106, 125
111, 115, 126, 114
120, 104, 109, 128
107, 121, 109, 133
111, 132, 114, 132
120, 133, 113, 111
124, 111, 118, 109
109, 100, 104, 128
112, 102, 129, 130
122, 111, 115, 126
105, 127, 108, 126
107, 112, 106, 104
101, 98, 131, 111
115, 108, 145, 113
114, 98, 119, 122
117, 106, 126, 108
106, 103, 128, 111
113, 112, 122, 108
115, 91, 118, 126
117, 115, 107, 139
95, 128, 118, 125
116, 121, 107, 121
101, 103, 126, 96
118, 113, 110, 115
111, 125, 94, 96
111, 119, 119, 126
124, 121, 117, 105
107, 110, 101, 126
135, 103, 117, 99
118, 106, 108, 103
105, 120, 121, 141
122, 134, 113, 121
103, 116, 114, 93
107, 107, 123, 130
100, 114, 113, 119
115, 107, 121, 95
123, 116, 115, 106
102, 126, 105, 95
94, 114, 114, 97
122, 106, 112, 103
109, 109, 94, 105
115, 106, 131, 97
135, 102, 118, 108
128, 107, 113, 132
95, 104, 124, 111
111, 117, 108, 98
98, 110, 104, 123
108, 108, 100, 120
93, 117, 127, 119
122, 119, 101, 131
100, 103, 115, 95
107, 127, 133, 104
108, 112, 101, 120
109, 128, 109, 107
114, 121, 107, 109
110, 110, 112, 111
104, 108, 113, 105
124, 107, 102, 109
110, 85, 112, 113
118, 112, 115, 133
113, 98, 124, 110
127, 110, 120, 121
109, 108, 122, 100
115, 108, 117, 107
121, 115, 98, 118
132, 97, 88, 106
115, 107, 112, 112
119, 100, 102, 119
120, 123, 141, 79
107, 129, 107, 98
116, 124, 116, 121
99, 136, 98, 108
119, 103, 93, 99
111, 111, 125, 124
123, 106, 108, 115
112, 114, 110, 98
132, 106, 118, 96
114, 104, 99, 118
110, 116, 107, 127
111, 99, 125, 102
132, 120, 122, 103
119, 103, 95, 105
106, 112, 141, 102
119, 101, 106, 114
135, 106, 123, 111
114, 125, 115, 123
118, 121, 108, 100
127, 101, 111, 108
139, 107, 120, 119
110, 98, 109, 129
113, 131, 122, 105
125, 109, 116, 99
96, 127, 84, 105
134, 116, 117, 110
114, 95, 115, 119
97, 101, 111, 104
99, 130, 114, 111
99, 103, 108, 146
96, 119, 115, 125
111, 105, 106, 116
123, 113, 124, 112
103, 106, 132, 114
111, 93, 98, 113
103, 109, 90, 118
107, 111, 106, 112
123, 89, 103, 109
104, 119, 116, 109
106, 120, 98, 106
114, 99, 101, 113
114, 102, 117, 121
130, 130, 109, 118
109, 113, 96, 132
97, 96, 98, 110
122, 110, 118, 105
104, 95, 116, 111
100, 101, 106, 122
111, 119, 100, 117
130, 120, 108, 125
131, 112, 111, 109
115, 113, 110, 126
111, 121, 111, 112
113, 106, 129, 105
128, 99, 119, 109
116, 107, 103, 107
122, 99, 116, 117
101, 103, 105, 100
105, 112, 95, 107
111, 92, 115, 105
107, 106, 100, 114
103, 107, 136, 120
119, 133, 111, 109
110, 112, 109, 146
107, 100, 123, 123
122, 116, 113, 96
144, 109, 111, 106
110, 103, 118, 106
90, 102, 116, 100
105, 106, 114, 100
113, 122, 116, 122
126, 125, 114, 104
115, 98, 117, 126
104, 120, 110, 115
115, 114, 118, 93
96, 112, 111, 105
116, 110, 111, 119
125, 115, 106, 129
102, 133, 110, 119
115, 123, 118, 120
101, 131, 120, 116
100, 102, 111, 130
95, 108, 120, 117
97, 124, 125, 124
114, 115, 116, 108
112, 109, 88, 119
108, 129, 122, 132
96, 142, 127, 115
121, 102, 95, 123
123, 137, 104, 118
116, 111, 114, 113
89, 115, 121, 118
106, 108, 112, 125
126, 116, 111, 114
97, 94, 105, 102
133, 129, 95, 114
141, 135, 113, 117
103, 99, 88, 135
100, 107, 139, 91
127, 113, 118, 121
126, 101, 106, 102
101, 112, 131, 95
100, 113, 103, 115
123, 118, 116, 102
106, 113, 118, 121
125, 133, 123, 116
129, 124, 119, 113
120, 129, 134, 138
121, 118, 114, 112
101, 125, 99, 124
118, 117, 132, 108
106, 107, 119, 116
119, 124, 116, 106
102, 120, 104, 106
111, 106, 124, 130
141, 116, 104, 112
119, 95, 123, 104
127, 129, 113, 97
111, 98, 104, 110
113, 102, 101, 110
108, 125, 103, 107
110, 111, 121, 132
111, 117, 113, 116
129, 111, 82, 131
110, 100, 114, 108
110, 125, 114, 119
116, 129, 123, 93
98, 110, 97, 120
117, 105, 122, 123
115, 110, 88, 134
124, 117, 141, 121
119, 104, 124, 104
111, 113, 110, 115
109, 109, 110, 107
111, 129, 126, 109
119, 124, 119, 114
114, 100, 119, 113
122, 114, 114, 109
133, 108, 99, 112
108, 128, 114, 110
108, 116, 112, 122
106, 121, 133, 120
107, 125, 108, 104
130, 106, 107, 105
99, 121, 103, 105
101, 127, 133, 92
116, 131, 105, 98
94, 108, 102, 92
121, 124, 105, 129
98, 107, 115, 95
120, 118, 116, 116
124, 120, 115, 112
99, 108, 105, 107
107, 110, 118, 112
97, 125, 99, 122
113, 129, 111, 137
114, 126, 120, 118
101, 102, 103, 96
105, 144, 102, 108
121, 121, 118, 112
111, 109, 100, 119
116, 124, 120, 105
97, 122, 133, 116
140, 131, 128, 137
102, 101, 150, 111
114, 125, 117, 119
105, 100, 118, 122
106, 138, 117, 114
125, 119, 114, 116
103, 136, 110, 116
101, 125, 99, 117
111, 124, 112, 115
118, 117, 116, 115
113, 130, 114, 134
110, 103, 120, 118
102, 112, 100, 127
118, 110, 110, 122
120, 116, 106, 124
97, 109, 117, 115
113, 121, 122, 115
109, 110, 129, 132
106, 122, 118, 107
143, 105, 101, 123
112, 100, 110, 112
124, 109, 128, 96
124, 111, 115, 117
121, 101, 139, 124
97, 99, 124, 131
112, 121, 111, 117
87, 106, 122, 127
97, 109, 134, 107
129, 127, 121, 106
109, 118, 121, 114
109, 118, 112, 95
126, 112, 95, 137
115, 127, 110, 117
110, 107, 114, 105
120, 101, 131, 117
116, 121, 112, 107
124, 119, 109, 96
110, 108, 124, 106
106, 117, 111, 115
117, 118, 136, 113
113, 126, 113, 99
118, 105, 113, 115
142, 99, 115, 106
109, 120, 117, 131
115, 98, 103, 124
115, 109, 115, 122
132, 115, 111, 119
103, 119, 98, 90
124, 129, 96, 117
121, 120, 105, 111
109, 113, 117, 119
104, 127, 104, 102
109, 107, 110, 122
113, 124, 127, 129
104, 128, 99, 110
132, 118, 121, 122
114, 138, 118, 109
108, 140, 119, 132
112, 97, 123, 103
124, 131, 126, 124
117, 113, 124, 112
109, 103, 144, 138
115, 122, 117, 117
108, 124, 116, 95
107, 118, 111, 149
103, 119, 140, 119
129, 127, 129, 117
129, 117, 110, 128
101, 115, 112, 112
111, 128, 134, 117
100, 102, 104, 114
127, 109, 118, 115
96, 143, 123, 111
114, 127, 109, 124
116, 117, 131, 99
115, 113, 115, 123
127, 105, 102, 120
115, 120, 123, 107
125, 106, 125, 110
148, 105, 114, 125
124, 135, 88, 124
127, 122, 121, 95
103, 108, 122, 118
112, 127, 129, 109
102, 117, 121, 117
123, 125, 116, 112
115, 128, 124, 128
110, 116, 119, 100
109, 103, 99, 127
140, 122, 117, 98
113, 111, 124, 100
122, 117, 127, 121
116, 90, 128, 97
118, 92, 116, 110
114, 109, 116, 120
153, 112, 118, 132
127, 132, 114, 115
105, 97, 128, 124
117, 135, 131, 97
123, 124, 100, 108
132, 134, 134, 118
126, 123, 118, 129
113, 117, 120, 129
118, 112, 106, 122
111, 140, 125, 121
114, 116, 115, 138
106, 111, 120, 124
115, 103, 97, 105
111, 116, 123, 123
122, 109, 110, 122
110, 134, 123, 102
120, 119, 104, 108
122, 140, 121, 116
120, 127, 113, 103
131, 135, 121, 137
110, 120, 132, 127
104, 125, 101, 122
109, 101, 105, 118
116, 92, 127, 141
108, 125, 113, 129
110, 115, 136, 106
132, 120, 115, 112
129, 144, 123, 129
126, 102, 117, 105
109, 119, 101, 108
141, 126, 121, 124
122, 130, 108, 121
127, 106, 132, 117
129, 117, 101, 105
122, 117, 125, 103
105, 121, 139, 99
130, 115, 117, 127
109, 118, 112, 121
116, 139, 107, 107
117, 120, 108, 134
114, 100, 132, 98
122, 121, 128, 121
114, 108, 117, 114
119, 124, 104, 97
113, 118, 129, 110
125, 107, 117, 124
125, 113, 132, 116
127, 90, 125, 129
124, 129, 121, 125
123, 134, 116, 135
113, 117, 108, 118
116, 135, 96, 114
120, 128, 110, 115
124, 119, 116, 113
131, 125, 108, 112
116, 141, 125, 118
110, 123, 131, 114
127, 119, 137, 119
109, 125, 124, 106
116, 119, 119, 130
102, 103, 131, 127
120, 132, 110, 131
114, 130, 113, 141
108, 128, 111, 133
115, 122, 110, 106
106, 119, 109, 126
112, 105, 139, 117
113, 108, 120, 111
119, 119, 116, 145
102, 107, 106, 118
109, 122, 110, 115
109, 123, 124, 91
116, 110, 120, 94
126, 120, 134, 114
136, 119, 131, 139
115, 105, 107, 132
111, 105, 104, 101
98, 123, 128, 108
110, 105, 117, 100
120, 129, 110, 97
114, 120, 102, 113
104, 100, 122, 115
126, 112, 117, 124
133, 129, 106, 113
137, 131, 120, 125
136, 129, 115, 105
123, 124, 118, 113
134, 110, 134, 126
133, 119, 118, 131
113, 109, 110, 106
120, 131, 137, 131
122, 118, 106, 104
115, 137, 106, 130
140, 135, 112, 132
135, 106, 112, 129
120, 116, 143, 115
127, 126, 157, 130
119, 140, 135, 141
113, 111, 111, 118
126, 139, 141, 108
128, 116, 139, 148
121, 141, 158, 143
156, 144, 132, 132
116, 128, 134, 108
137, 113, 141, 145
118, 112, 129, 143
138, 129, 134, 136
120, 123, 133, 114
123, 130, 130, 116
138, 95, 125, 151
125, 111, 110, 127
124, 101, 117, 129
101, 129, 98, 135
123, 116, 128, 127
135, 118, 115, 135
124, 119, 96, 148
130, 136, 110, 132
112, 126, 136, 106
96, 111, 122, 110
107, 115, 117, 118
117, 108, 118, 116
101, 130, 115, 109
123, 124, 130, 108
116, 134, 131, 152
135, 125, 122, 118
111, 110, 130, 131
119, 116, 114, 143
129, 111, 105, 102
122, 132, 129, 103
110, 127, 118, 130
127, 102, 128, 152
119, 119, 133, 119
116, 125, 141, 124
129, 117, 99, 111
124, 110, 107, 114
122, 130, 135, 113
113, 120, 99, 124
110, 136, 110, 123
117, 126, 129, 119
134, 129, 138, 129
136, 134, 123, 118
116, 101, 110, 127
137, 123, 115, 115
113, 116, 114, 118
133, 127, 139, 134
142, 118, 131, 132
124, 144, 133, 147
132, 140, 144, 132
139, 119, 144, 138
154, 140, 168, 173
159, 149, 138, 173
160, 177, 157, 177
150, 147, 173, 124
138, 171, 148, 147
139, 132, 130, 143
148, 143, 132, 127
138, 151, 163, 144
132, 142, 154, 142
152, 139, 133, 140
126, 120, 153, 165
146, 168, 177, 162
153, 146, 161, 167
132, 147, 145, 148
133, 138, 152, 143
143, 129, 134, 143
147, 136, 120, 141
109, 131, 147, 127
123, 141, 133, 160
153, 139, 134, 145
129, 143, 146, 139
144, 138, 136, 121
133, 139, 135, 128
114, 127, 126, 131
138, 116, 150, 146
126, 139, 150, 120
134, 130, 118, 106
143, 139, 154, 138
114, 123, 134, 148
133, 119, 128, 131
126, 122, 128, 117
148, 128, 148, 117
132, 154, 120, 132
123, 133, 122, 133
130, 148, 135, 151
137, 139, 160, 144
125, 131, 161, 143
139, 148, 145, 124
140, 138, 140, 162
148, 147, 125, 143
133, 153, 130, 138
143, 132, 128, 168
139, 149, 152, 136
180, 141, 154, 165
170, 157, 151, 150
176, 166, 161, 170
182, 184, 219, 200
206, 232, 228, 231
202, 227, 246, 216
244, 259, 281, 367
411, 566, 888, 1741
3234, 4982, 6252, 6563
6421, 5427, 4401, 3328
2652, 2294, 2388, 2873
3580, 4140, 4248, 3932
3370, 2807, 2129, 1783
1455, 1458, 1272, 1380
1546, 1915, 2474, 2716
2668, 2416, 2052, 1532
1218, 994, 815, 823
892, 1117, 1262, 1307
1172, 975, 833, 705
504, 404, 396, 339
321, 275, 303, 266
288, 267, 309, 259
254, 270, 229, 221
235, 238, 240, 241
211, 186, 226, 188
182, 184, 203, 189
204, 171, 237, 195
182, 205, 180, 210
185, 183, 188, 147
169, 188, 192, 168
182, 189, 156, 193
185, 172, 153, 159
176, 179, 177, 197
179, 184, 169, 154
187, 164, 167, 155
207, 181, 177, 162
166, 164, 158, 173
177, 155, 148, 171
171, 165, 185, 191
165, 156, 161, 188
174, 180, 171, 173
177, 182, 165, 174
183, 184, 186, 186
164, 172, 175, 164
159, 162, 182, 175
182, 196, 166, 190
172, 159, 188, 180
171, 156, 172, 181
156, 163, 188, 197
185, 184, 194, 183
196, 181, 184, 192
181, 173, 159, 182
183, 177, 179, 182
197, 198, 211, 173
177, 188, 179, 197
192, 191, 164, 199
192, 168, 186, 214
182, 217, 177, 207
209, 227, 207, 190
172, 212, 227, 228
210, 242, 244, 250
268, 264, 291, 310
291, 345, 343, 385
405, 419, 449, 439
511, 516, 593, 682
792, 994, 1293, 1464
1848, 2323, 2762, 3478
4103, 4983, 6195, 6992
8065, 8792, 9069, 9495
9845, 9822, 10001, 10234
10432, 10723, 10433, 10584
10405, 9959, 9423, 8943
8464, 8067, 7395, 7001
6671, 6235, 5996, 5679
5226, 4808, 4395, 3940
3478, 2843, 2361, 1942
1640, 1582, 1461, 1345
1326, 1240, 1135, 1005
874, 739, 628, 546
473, 477, 420, 438
373, 408, 394, 381
349, 307, 311, 347
329, 305, 299, 293
288, 283, 246, 263
211, 226, 196, 228
202, 199, 188, 221
216, 174, 181, 177
173, 193, 160, 175
199, 173, 166, 167
170, 183, 187, 154
173, 142, 150, 159
165, 159, 181, 147
138, 156, 168, 153
162, 155, 159, 133
163, 156, 127, 137
135, 159, 131, 133
151, 144, 155, 138
150, 136, 143, 116
161, 146, 143, 129
143, 140, 141, 148
135, 144, 130, 134
131, 143, 134, 139
130, 126, 143, 153
149, 124, 138, 139
138, 142, 112, 144
141, 138, 121, 117
121, 125, 141, 127
131, 123, 144, 118
116, 121, 149, 131
144, 149, 130, 142
138, 120, 116, 120
122, 144, 119, 145
112, 137, 139, 126
122, 124, 131, 143
129, 141, 130, 130
118, 110, 154, 135
127, 124, 131, 134
133, 130, 122, 114
123, 118, 131, 123
126, 128, 144, 123
129, 135, 119, 129
123, 136, 150, 126
105, 140, 134, 111
116, 120, 129, 128
144, 126, 133, 125
131, 118, 112, 128
149, 155, 150, 138
133, 134, 111, 130
118, 125, 117, 136
131, 144, 119, 120
128, 125, 122, 141
111, 131, 116, 124
128, 124, 127, 136
102, 136, 127, 131
129, 124, 111, 132
122, 103, 123, 130
144, 108, 142, 150
96, 125, 123, 118
112, 111, 124, 124
125, 155, 128, 107
111, 129, 116, 137
121, 106, 111, 136
118, 123, 127, 129
145, 119, 138, 140
119, 130, 123, 122
142, 103, 125, 127
129, 106, 114, 127
110, 128, 130, 142
129, 137, 138, 127
102, 114, 100, 123
125, 133, 118, 114
114, 91, 129, 124
134, 157, 102, 130
156, 124, 125, 129
136, 115, 143, 121
133, 134, 128, 117
124, 125, 124, 127
129, 130, 124, 121
133, 116, 123, 115
135, 133, 123, 147
123, 116, 138, 133
129, 136, 139, 127
131, 127, 128, 141
123, 126, 132, 100
144, 126, 134, 111
124, 121, 137, 116
137, 142, 141, 123
122, 127, 115, 140
127, 130, 140, 125
117, 144, 126, 123
121, 99, 137, 115
128, 132, 136, 125
140, 114, 139, 122
123, 142, 127, 110
127, 130, 134, 126
128, 135, 136, 114
112, 137, 131, 128
104, 135, 109, 133
147, 132, 116, 128
128, 110, 122, 124
122, 137, 137, 128
138, 136, 136, 122
125, 138, 115, 115
134, 104, 142, 133
147, 134, 128, 140
108, 125, 135, 109
121, 117, 134, 121
125, 139, 118, 115
135, 117, 117, 130
127, 120, 137, 128
128, 125, 138, 125
130, 128, 118, 122
117, 103, 133, 130
143, 125, 133, 122
128, 126, 117, 141
135, 120, 117, 125
133, 132, 91, 111
132, 115, 127, 129
136, 118, 131, 121
149, 114, 123, 138
120, 145, 120, 130
129, 127, 124, 118
105, 116, 122, 129
121, 112, 117, 130
130, 111, 134, 140
127, 106, 131, 122
121, 115, 113, 121
114, 121, 123, 141
121, 121, 117, 123
128, 124, 112, 135
109, 107, 124, 113
126, 138, 130, 118
124, 116, 139, 147
127, 111, 124, 109
119, 109, 117, 121
115, 119, 114, 125
112, 134, 102, 113
135, 136, 122, 123
130, 130, 110, 128
118, 113, 131, 153
113, 130, 133, 115
135, 125, 109, 123
124, 121, 125, 117
146, 144, 130, 94
126, 135, 136, 126
137, 133, 120, 120
119, 141, 119, 121
125, 110, 130, 121
128, 120, 117, 127
135, 137, 136, 103
139, 124, 113, 114
126, 121, 112, 108
137, 135, 132, 117
134, 127, 126, 148
126, 107, 128, 132
122, 156, 131, 123
108, 129, 112, 128
137, 118, 119, 109
138, 118, 112, 124
109, 126, 123, 137
146, 135, 141, 105
129, 117, 141, 125
126, 128, 138, 144
134, 143, 141, 115
132, 127, 126, 129
117, 124, 131, 139
153, 132, 119, 141
137, 138, 140, 122
130, 111, 132, 127
118, 126, 118, 144
115, 126, 117, 122
124, 134, 116, 121
125, 109, 105, 151
116, 145, 132, 139
115, 127, 114, 127
128, 125, 138, 123
126, 126, 118, 135
112, 146, 133, 139
127, 122, 118, 131
119, 121, 120, 116
133, 122, 131, 109
109, 133, 140, 127
100, 131, 136, 158
110, 118, 117, 112
142, 115, 120, 109
102, 122, 121, 133
121, 140, 147, 112
138, 123, 135, 126
121, 136, 126, 130
127, 132, 125, 128
122, 113, 122, 124
133, 134, 119, 143
113, 118, 122, 117
120, 149, 141, 142
127, 120, 105, 137
151, 116, 117, 132
129, 136, 115, 128
137, 155, 113, 127
121, 129, 145, 126
119, 122, 123, 111
128, 121, 129, 141
143, 129, 121, 133
116, 135, 117, 133
127, 136, 124, 135
118, 132, 102, 149
143, 124, 132, 128
108, 132, 142, 125
116, 133, 125, 145
134, 116, 124, 120
147, 120, 113, 112
129, 151, 138, 142
118, 121, 126, 114
120, 113, 113, 123
128, 136, 111, 122
113, 123, 144, 117
125, 125, 122, 117
122, 126, 132, 147
127, 144, 126, 119
141, 112, 129, 129
120, 129, 133, 147
111, 138, 117, 110
122, 123, 121, 136
126, 105, 141, 128
149, 129, 135, 124
145, 117, 115, 132
121, 125, 146, 142
134, 127, 126, 140
122, 131, 132, 118
145, 151, 126, 126
122, 116, 131, 118
141, 105, 159, 123
122, 121, 106, 140
135, 116, 116, 140
138, 106, 141, 135
137, 144, 134, 127
120, 119, 122, 121
130, 112, 136, 122
123, 125, 155, 122
137, 116, 156, 144
132, 125, 94, 140
127, 129, 121, 134
119, 134, 142, 145
128, 122, 118, 115
108, 123, 138, 129
158, 146, 114, 124
125, 144, 120, 149
111, 116, 123, 134
118, 122, 136, 119
146, 143, 112, 112
135, 132, 125, 137
142, 144, 144, 108
122, 118, 132, 140
121, 128, 114, 126
118, 130, 103, 114
137, 146, 125, 120
121, 124, 131, 135
104, 132, 134, 120
124, 121, 136, 116
124, 128, 125, 143
110, 126, 136, 116
117, 120, 109, 118
130, 105, 117, 121
129, 126, 130, 138
125, 118, 131, 143
107, 131, 90, 117
125, 132, 123, 124
135, 127, 139, 131
118, 121, 107, 126
126, 125, 135, 121
146, 110, 136, 135
96, 127, 122, 113
132, 114, 133, 112
117, 108, 138, 127
125, 106, 118, 126
114, 121, 118, 136
134, 123, 127, 110
123, 119, 138, 130
120, 109, 124, 113
111, 131, 128, 132
126, 115, 138, 145
135, 112, 115, 109
117, 134, 150, 111
128, 143, 122, 125
132, 128, 145, 135
148, 118, 120, 129
152, 124, 126, 120
133, 136, 132, 126
120, 129, 142, 127
127, 132, 133, 136
117, 124, 120, 137
112, 126, 136, 114
107, 127, 134, 117
121, 120, 115, 130
119, 116, 119, 118
118, 134, 104, 132
130, 124, 130, 122
140, 148, 131, 132
129, 115, 113, 127
137, 120, 128, 125
130, 124, 133, 103
133, 127, 140, 132
119, 155, 134, 125
110, 144, 138, 137
121, 127, 121, 117
141, 132, 116, 136
131, 130, 143, 134
113, 128, 114, 129
127, 123, 130, 139
143, 107, 127, 118
127, 123, 138, 138
121, 97, 127, 131
130, 118, 107, 115
130, 125, 130, 128
114, 102, 144, 145
116, 125, 135, 112
139, 128, 111, 121
136, 131, 120, 138
135, 128, 106, 139
111, 144, 123, 144
110, 143, 130, 119
116, 121, 143, 138
130, 131, 120, 132
152, 138, 108, 124
129, 122, 128, 131
121, 133, 124, 134
153, 134, 134, 112
121, 123, 147, 141
123, 113, 125, 134
128, 122, 100, 112
116, 129, 128, 121
121, 130, 109, 135
109, 124, 114, 116
153, 131, 131, 110
111, 131, 109, 120
119, 130, 140, 139
137, 143, 129, 129
137, 143, 145, 131
115, 133, 136, 121
148, 161, 136, 126
134, 109, 122, 125
160, 138, 118, 123
129, 110, 132, 127
120, 118, 129, 139
126, 127, 130, 131
157, 140, 126, 136
156, 133, 148, 134
142, 128, 115, 113
124, 106, 123, 134
137, 139, 141, 139
129, 130, 138, 133
107, 136, 112, 129
136, 139, 138, 143
123, 134, 135, 136
125, 126, 126, 133
112, 123, 129, 154
130, 134, 144, 130
121, 128, 132, 144
110, 139, 141, 142
140, 120, 120, 134
141, 115, 120, 113
123, 133, 128, 109
135, 118, 133, 125
139, 110, 133, 130
122, 135, 120, 114
122, 123, 120, 117
141, 130, 133, 116
133, 145, 131, 110
140, 127, 105, 130
142, 125, 154, 116
118, 101, 119, 142
137, 117, 152, 122
125, 129, 139, 121
141, 125, 124, 123
105, 126, 119, 124
122, 152, 126, 113
136, 126, 133, 133
120, 119, 143, 131
110, 133, 144, 123
124, 141, 150, 140
120, 126, 136, 140
133, 118, 136, 116
126, 121, 137, 149
128, 146, 134, 110
126, 124, 128, 104
115, 123, 119, 139
123, 111, 123, 129
129, 127, 135, 131
116, 128, 119, 118
103, 148, 119, 123
100, 124, 130, 126
113, 138, 124, 139
115, 122, 106, 142
150, 145, 111, 125
141, 120, 125, 138
143, 126, 117, 154
120, 118, 133, 160
146, 130, 110, 142
121, 117, 110, 129
131, 140, 128, 135
115, 129, 131, 112
127, 113, 104, 120
150, 112, 130, 103
112, 136, 151, 115
137, 149, 122, 126
129, 133, 108, 128
114, 126, 128, 107
134, 120, 127, 130
132, 130, 131, 121
135, 116, 120, 128
145, 132, 127, 126
129, 103, 131, 134
126, 140, 123, 109
113, 118, 115, 123
115, 119, 135, 113
106, 130, 152, 137
118, 135, 121, 135
132, 138, 134, 136
121, 124, 134, 113
135, 121, 120, 120
126, 127, 129, 117
121, 125, 107, 137
142, 142, 140, 136
118, 149, 122, 116
113, 112, 123, 110
123, 146, 111, 139
128, 119, 109, 129
133, 142, 127, 128
121, 116, 118, 138
116, 130, 121, 127
109, 134, 108, 122
109, 131, 124, 129
124, 128, 120, 129
133, 135, 116, 142
127, 114, 143, 142
109, 128, 134, 121
116, 126, 114, 129
126, 131, 105, 110
143, 109, 100, 125
108, 128, 125, 117
118, 123, 126, 124
125, 129, 145, 129
125, 118, 123, 117
142, 133, 125, 132
133, 117, 132, 118
122, 124, 120, 111
134, 123, 133, 136
126, 132, 138, 136
116, 117, 126, 140
141, 116, 136, 106
112, 133, 143, 123
134, 130, 139, 139
132, 116, 125, 122
127, 114, 121, 128
119, 124, 143, 114
115, 141, 132, 121
112, 129, 113, 126
123, 103, 131, 137
115, 118, 118, 132
137, 122, 143, 125
107, 124, 137, 142
121, 124, 113, 145
147, 134, 109, 107
125, 124, 111, 121
139, 120, 130, 127
124, 132, 130, 123
131, 130, 125, 101
127, 136, 128, 119
144, 153, 131, 130
136, 109, 117, 145
144, 140, 137, 125
114, 98, 131, 144
139, 134, 121, 127
134, 136, 111, 122
157, 122, 144, 131
128, 138, 142, 121
140, 116, 117, 130
111, 137, 137, 128
120, 130, 113, 131
132, 126, 111, 104
129, 134, 116, 140
127, 114, 132, 142
148, 123, 129, 128
110, 110, 131, 145
105, 165, 135, 137
106, 119, 126, 131
125, 123, 127, 112
141, 136, 123, 133
99, 138, 137, 132
131, 135, 123, 133
127, 141, 127, 120
123, 131, 107, 136
134, 128, 140, 109
127, 139, 133, 113
128, 147, 117, 129
151, 145, 134, 131
126, 152, 122, 145
140, 123, 122, 160
122, 131, 133, 132
128, 122, 144, 118
141, 137, 129, 132
140, 155, 115, 137
131, 150, 157, 122
137, 134, 148, 140
140, 151, 138, 139
121, 166, 145, 151
140, 132, 144, 123
155, 158, 168, 174
133, 156, 145, 148
148, 136, 129, 143
136, 118, 114, 138
109, 136, 131, 133
120, 114, 123, 129
126, 128, 128, 134
145, 130, 144, 122
134, 121, 137, 131
115, 139, 128, 139
116, 137, 128, 129
114, 111, 132, 122
136, 137, 127, 128
109, 117, 127, 130
134, 121, 136, 143
126, 129, 128, 112
147, 135, 136, 114
125, 121, 103, 121
137, 132, 128, 145
116, 110, 130, 137
113, 133, 153, 106
125, 156, 107, 102
120, 135, 125, 122
131, 121, 127, 134
131, 132, 114, 132
112, 110, 136, 128
126, 112, 126, 127
136, 130, 116, 117
141, 144, 127, 125
113, 129, 124, 121
143, 128, 128, 139
117, 117, 117, 124
130, 128, 119, 112
118, 124, 137, 125
124, 150, 142, 133
125, 110, 136, 123
141, 101, 143, 120
127, 125, 126, 139
120, 126, 132, 113
127, 106, 119, 147
119, 124, 118, 120
145, 134, 141, 124
157, 133, 148, 122
105, 126, 122, 89
129, 115, 125, 138
142, 131, 124, 134
137, 103, 108, 120
129, 129, 111, 134
155, 116, 133, 141
123, 124, 133, 105
127, 131, 131, 118
124, 142, 121, 112
130, 110, 108, 133
129, 128, 127, 127
112, 143, 119, 117
129, 113, 110, 134
123, 125, 132, 95
138, 118, 127, 123
138, 118, 125, 133
124, 135, 139, 150
143, 127, 129, 118
124, 135, 131, 124
142, 105, 119, 151
123, 125, 137, 162
138, 117, 132, 113
143, 150, 118, 128
121, 128, 118, 152
118, 111, 118, 125
137, 113, 125, 135
126, 125, 136, 123
125, 111, 145, 126
134, 108, 135, 119
140, 128, 134, 112
134, 122, 138, 123
123, 143, 113, 126
132, 134, 129, 117
130, 141, 129, 118
142, 105, 123, 145
110, 127, 135, 128
108, 110, 121, 138
127, 107, 126, 148
105, 109, 146, 103
120, 130, 124, 134
129, 156, 122, 115
128, 137, 138, 122
121, 131, 144, 124
116, 126, 126, 132
106, 121, 120, 127
132, 137, 145, 136
124, 116, 118, 138
132, 120, 139, 120
157, 123, 146, 115
123, 132, 122, 132
117, 124, 125, 132
119, 125, 128, 129
118, 138, 123, 132
131, 126, 121, 139
117, 134, 128, 145
120, 125, 132, 126
122, 131, 108, 129
127, 117, 134, 120
126, 129, 125, 154
131, 130, 137, 122
123, 131, 125, 107
128, 117, 132, 146
132, 129, 146, 113
134, 131, 129, 120
99, 130, 129, 142
130, 129, 118, 138
119, 122, 115, 120
132, 134, 119, 127
103, 127, 136, 112
134, 133, 156, 134
122, 107, 146, 119
125, 110, 140, 111
135, 112, 137, 118
115, 110, 130, 120
141, 120, 99, 124
127, 125, 133, 137
113, 115, 138, 116
128, 116, 140, 124
120, 133, 141, 120
137, 117, 116, 124
93, 117, 112, 104
131, 129, 131, 116
133, 129, 133, 129
122, 133, 130, 125
134, 146, 129, 152
142, 121, 120, 123
121, 116, 123, 118
122, 130, 129, 127
120, 147, 128, 117
126, 140, 141, 127
140, 127, 134, 119
115, 131, 126, 124
130, 145, 140, 115
128, 120, 137, 140
136, 147, 141, 118
124, 134, 122, 111
134, 160, 110, 113
136, 138, 122, 127
118, 136, 136, 112
114, 130, 101, 129
123, 112, 145, 148
137, 128, 135, 138
124, 121, 123, 128
111, 124, 119, 108
135, 122, 125, 136
120, 124, 119, 129
130, 133, 112, 107
122, 139, 127, 133
128, 133, 157, 119
126, 111, 111, 136
90, 120, 127, 139
142, 133, 133, 122
111, 124, 124, 117
115, 139, 123, 108
127, 125, 115, 150
129, 121, 141, 133
97, 122, 133, 127
138, 138, 134, 127
119, 113, 136, 114
143, 131, 134, 152
122, 127, 129, 130
126, 110, 139, 131
143, 108, 127, 136
120, 119, 132, 135
127, 136, 138, 118
141, 110, 101, 106
134, 132, 114, 141
145, 147, 126, 120
114, 131, 121, 138
146, 139, 115, 155
129, 150, 139, 151
123, 141, 143, 151
132, 129, 145, 126
154, 140, 144, 149
143, 126, 138, 136
134, 140, 147, 160
148, 140, 132, 144
136, 149, 113, 135
116, 124, 144, 159
126, 137, 129, 131
140, 113, 140, 128
128, 140, 127, 139
115, 133, 106, 122
133, 150, 98, 114
111, 109, 111, 127
127, 150, 144, 129
124, 112, 111, 134
125, 115, 131, 154
131, 125, 137, 127
114, 137, 134, 127
129, 143, 107, 118
124, 144, 136, 134
134, 142, 125, 139
122, 138, 132, 123
105, 128, 141, 117
150, 129, 121, 138
127, 127, 134, 124
121, 139, 127, 145
139, 124, 130, 127
128, 133, 109, 131
123, 147, 119, 137
142, 136, 118, 127
106, 128, 140, 119
135, 139, 126, 123
135, 123, 107, 134
123, 152, 121, 127
136, 132, 133, 133
140, 142, 135, 136
139, 134, 139, 108
131, 131, 134, 155
132, 132, 136, 126
124, 117, 120, 127
125, 120, 125, 126
119, 132, 142, 130
127, 135, 128, 130
121, 129, 141, 110
145, 143, 123, 146
117, 128, 125, 140
119, 111, 147, 145
140, 125, 144, 131
140, 138, 114, 135
131, 131, 149, 131
134, 140, 126, 137
139, 122, 134, 131
117, 122, 130, 141
144, 119, 122, 143
124, 138, 126, 126
128, 149, 142, 129
122, 133, 139, 114
127, 146, 128, 145
138, 146, 132, 123
146, 134, 128, 135
131, 114, 125, 151
114, 110, 136, 134
133, 130, 124, 169
121, 118, 126, 111
121, 144, 130, 117
159, 122, 134, 134
137, 123, 131, 133
124, 129, 153, 141
127, 127, 146, 116
143, 135, 138, 122
150, 137, 146, 123
124, 143, 124, 137
117, 137, 136, 149
141, 151, 143, 145
135, 133, 142, 138
154, 140, 149, 151
153, 120, 159, 135
126, 121, 135, 130
129, 130, 147, 142
124, 122, 140, 143
140, 148, 173, 156
176, 153, 152, 152
151, 162, 162, 146
156, 155, 157, 165
158, 171, 159, 169
197, 169, 182, 192
201, 194, 223, 223
243, 232, 230, 266
298, 402, 365, 436
459, 466, 545, 621
609, 735, 753, 908
975, 1092, 1117, 1228
1275, 1476, 1420, 1469
1510, 1457, 1547, 1402
1447, 1354, 1398, 1228
1312, 1302, 1296, 1229
1153, 1205, 1178, 1159
1009, 1042, 1035, 947
957, 905, 852, 861
794, 770, 771, 716
691, 635, 633, 630
593, 564, 541, 494
407, 440, 369, 369
320, 277, 250, 234
205, 218, 189, 164
166, 173, 169, 162
134, 183, 162, 154
141, 152, 154, 153
165, 133, 151, 148
144, 153, 128, 122
130, 140, 137, 127
131, 146, 138, 131
138, 138, 142, 136
125, 154, 143, 124
152, 134, 151, 146
135, 129, 129, 155
159, 137, 132, 112
130, 140, 137, 148
155, 145, 125, 117
119, 117, 126, 99
149, 124, 147, 163
123, 143, 134, 135
136, 133, 129, 148
157, 137, 148, 130
144, 130, 111, 123
131, 122, 134, 112
131, 140, 117, 138
118, 122, 115, 130
119, 136, 140, 134
153, 124, 130, 151
150, 154, 141, 143
142, 134, 134, 142
122, 121, 133, 154
148, 142, 116, 145
135, 115, 131, 144
125, 150, 148, 146
148, 116, 124, 132
130, 119, 147, 153
131, 147, 137, 146
154, 150, 133, 138
149, 136, 133, 120
123, 131, 147, 124
133, 136, 149, 141
157, 137, 114, 139
135, 118, 124, 135
107, 143, 131, 123
129, 136, 124, 135
119, 127, 128, 142
139, 123, 122, 126
123, 153, 125, 121
158, 144, 155, 126
166, 120, 133, 139
117, 121, 136, 142
152, 130, 138, 141
127, 143, 145, 122
129, 137, 122, 127
130, 126, 151, 147
142, 117, 139, 119
131, 120, 108, 162
119, 140, 110, 130
122, 124, 124, 122
118, 125, 128, 131
102, 129, 140, 133
128, 144, 124, 129
118, 134, 115, 140
133, 149, 131, 131
126, 140, 138, 128
131, 131, 117, 127
140, 136, 126, 132
136, 125, 134, 120
120, 144, 131, 134
127, 148, 130, 118
137, 131, 133, 141
140, 126, 126, 126
123, 122, 127, 160
137, 118, 134, 124
127, 119, 126, 135
128, 152, 150, 127
144, 133, 123, 125
125, 136, 116, 142
142, 122, 125, 127
132, 136, 134, 135
119, 136, 117, 126
115, 129, 142, 121
122, 140, 112, 129
140, 147, 119, 129
149, 130, 130, 135
123, 140, 143, 121
132, 103, 120, 131
144, 147, 130, 141
128, 126, 125, 129
124, 133, 134, 143
131, 154, 132, 113
131, 150, 137, 128
127, 133, 153, 165
141, 132, 134, 129
125, 138, 141, 140
126, 151, 116, 126
126, 106, 132, 110
115, 135, 120, 118
144, 150, 138, 147
137, 119, 129, 118
125, 134, 125, 139
110, 144, 132, 131
119, 157, 144, 149
137, 146, 140, 172
160, 186, 172, 181
182, 186, 189, 196
165, 157, 164, 165
148, 158, 180, 168
167
*END

*EOF
