*TYPE		=  Raw
*CLASS		=  ASCII CLASS
*SAMPLE		=   
*COMMENT	=   
*FNAME		=  2-2_2-Theta_Omega.asc
*DATE		=  11-Dec-25 16:05

*GROUP_COUNT	=  1
*GONIO		=  SmartLab(In-plane), 0.000000
*ATTACHMENT	=  Z-Phi Stage
*ASC		=  0, 0, 0.000000, 0.000000
*I_MONOCHRO	=  Soller_slit_5.0deg, 0.000000
*FILTER		=  None
*C_MONOCHRO	=  None, 0.000000
*SLIT_NAME	=  0, Incident slit
*SLIT_NAME	=  1, Receiving slit # 1
*SLIT_NAME	=  2, Receiving slit # 2
*COUNTER	=  SC-70, 0
*POS_FORMAT	=  0
*SCAN_AXIS	=  2Theta/Omega
*MEAS_MODE	=  Continuous Scanning
*TARGET		=  29
*XRAY_CHAR	=  K-ALPHA
*WAVE_LENGTH1	=  1.54059
*WAVE_LENGTH2	=  1.54441
*THICKNESS	=  0, 0.000000
*MU		=  0, 0.000000
*SCAN_MODE	=  2Theta/Omega
*SPEED_DIM	=  sec./step
*XUNIT		=  deg.
*YUNIT		=  counts
*SCALE_MODE	=  1
*REP_COUNT	=  0
*SE_COUNT	=  0
*STD_MATERIAL	=  Unknown, Unknown, 0.000000, 0.000000, 0.000000, 0.000000, 0.000000, 0.000000
*LATT_CONS	=  0, Unknown, Unknown, 0.000000, 0.000000, 0.000000, 0.000000, 0.000000, 0.000000
*SEC_COUNT	=  1
*TSPEC_SIZE	=  0
*EXTRA_SIZE	=  0
*MEMO		=   

*BEGIN
*GROUP		=  0
*START		=  20
*STOP		=  80
*STEP		=  0.01
*OFFSET		=  0.000000
*SPEED		=  0.05
*SLIT_SPEC	=  0, 1.000mm, 1, 0.000000
*SLIT_SPEC	=  1, 1.000mm, 1, 0.000000
*SLIT_SPEC	=  2, 1.000mm, 1, 0.000000
*KV		=  40
*MA		=  100
*LOW		=  0.000000
*HIGH		=  0.000000
*CTEMPER	=  0, 0.000000
*CTEMPER	=  1, 0.000000
*CTEMPER	=  2, 0.000000
*PAREX		=  0, 0.000000
*PAREX		=  1, 0.000000
*PAREX		=  2, 0.000000
*PAREX		=  3, 0.000000
*PAREX		=  4, 0.000000
*PAREX		=  5, 0.000000
*PAREX		=  6, 0.000000
*PAREX		=  7, 0.000000
*PAREX		=  8, 0.000000
*PAREX		=  9, 0.000000
*PAREX		=  10, 0.000000
*PAREX		=  11, 0.000000
*PAREX		=  12, 0.000000
*PAREX		=  13, 0.000000
*PAREX		=  14, 0.000000
*PAREX		=  15, 0.000000
*FULL_SCALE	=  760952
*INDEX		=  0, 0, 0
*COUNT		=  6001
101, 107, 79, 98
112, 105, 125, 108
82, 115, 108, 120
108, 88, 113, 104
103, 126, 92, 101
91, 91, 125, 114
117, 108, 111, 121
110, 115, 121, 114
112, 93, 107, 95
103, 98, 94, 121
103, 116, 112, 113
129, 104, 111, 110
116, 121, 112, 129
123, 138, 175, 138
175, 169, 153, 153
137, 145, 125, 150
160, 109, 125, 105
112, 95, 91, 102
120, 112, 110, 115
100, 101, 108, 98
106, 108, 125, 103
104, 122, 105, 94
89, 108, 106, 94
115, 103, 111, 113
114, 101, 92, 134
98, 109, 112, 111
101, 98, 114, 112
117, 101, 109, 102
95, 105, 105, 92
106, 112, 108, 116
106, 126, 104, 94
121, 127, 86, 103
113, 94, 95, 117
120, 87, 131, 122
118, 126, 101, 115
106, 107, 108, 119
101, 118, 126, 122
109, 93, 107, 111
117, 111, 113, 111
103, 110, 98, 105
106, 121, 105, 117
84, 105, 111, 89
125, 80, 110, 118
98, 99, 91, 84
110, 97, 109, 94
102, 98, 93, 100
123, 104, 96, 113
110, 106, 95, 105
98, 104, 118, 88
98, 106, 108, 121
114, 90, 114, 116
107, 93, 98, 100
135, 88, 103, 102
104, 97, 113, 100
106, 103, 115, 101
93, 104, 97, 98
111, 103, 109, 115
99, 91, 87, 110
92, 108, 115, 104
101, 115, 109, 104
109, 108, 91, 110
114, 108, 124, 106
119, 155, 111, 126
97, 106, 121, 95
122, 117, 82, 103
106, 123, 115, 99
114, 129, 120, 129
115, 101, 105, 130
111, 104, 120, 118
117, 108, 111, 108
92, 114, 124, 107
120, 108, 102, 101
103, 104, 120, 92
131, 103, 96, 127
103, 93, 87, 116
91, 94, 96, 118
97, 108, 126, 99
103, 124, 104, 101
112, 111, 111, 101
115, 106, 119, 115
130, 103, 119, 98
105, 125, 112, 94
114, 97, 107, 120
123, 113, 98, 100
110, 112, 106, 93
108, 93, 98, 112
96, 108, 108, 112
123, 92, 104, 98
82, 89, 120, 116
105, 99, 123, 133
108, 113, 111, 131
103, 123, 99, 119
99, 96, 122, 97
106, 112, 100, 105
107, 120, 89, 106
94, 112, 110, 104
111, 122, 119, 110
85, 122, 129, 105
77, 115, 107, 77
95, 108, 118, 125
99, 100, 119, 119
112, 110, 126, 105
106, 123, 102, 109
118, 100, 95, 108
137, 117, 119, 100
114, 93, 104, 117
114, 114, 117, 106
94, 109, 110, 110
103, 118, 105, 88
123, 107, 102, 117
96, 114, 99, 95
86, 96, 112, 121
90, 102, 108, 123
107, 113, 114, 109
110, 99, 124, 123
120, 99, 104, 109
104, 100, 115, 108
107, 98, 103, 101
102, 123, 112, 116
113, 115, 86, 101
104, 97, 100, 107
123, 99, 99, 127
104, 109, 119, 112
110, 95, 74, 104
97, 98, 111, 123
104, 102, 99, 96
104, 106, 116, 111
114, 103, 102, 110
111, 121, 107, 116
83, 115, 105, 114
96, 106, 127, 94
85, 110, 122, 118
112, 87, 97, 108
91, 92, 134, 126
94, 111, 75, 103
104, 110, 111, 101
106, 102, 113, 125
101, 101, 114, 113
103, 104, 91, 104
100, 97, 111, 105
108, 128, 85, 112
105, 95, 101, 118
115, 114, 112, 123
115, 99, 104, 122
123, 95, 120, 109
124, 106, 117, 93
110, 102, 90, 90
103, 102, 107, 119
87, 115, 101, 112
103, 123, 122, 97
96, 85, 111, 103
98, 128, 105, 96
122, 103, 100, 114
99, 117, 103, 98
120, 112, 112, 113
106, 87, 102, 91
104, 108, 105, 121
116, 121, 87, 104
102, 110, 122, 111
102, 94, 85, 132
112, 88, 104, 113
130, 117, 121, 132
90, 109, 112, 114
114, 107, 100, 113
127, 118, 102, 94
108, 113, 124, 93
95, 95, 104, 120
102, 109, 103, 87
102, 122, 107, 102
115, 129, 99, 122
101, 106, 98, 118
112, 90, 128, 117
106, 111, 127, 107
104, 134, 107, 87
115, 113, 103, 104
104, 111, 102, 103
98, 113, 99, 98
111, 130, 110, 95
114, 127, 106, 104
112, 111, 108, 91
95, 105, 110, 115
99, 100, 109, 94
97, 111, 118, 94
109, 112, 117, 91
111, 133, 95, 122
103, 106, 118, 130
96, 115, 99, 100
116, 112, 111, 117
100, 129, 116, 93
116, 107, 119, 96
121, 132, 83, 117
107, 123, 100, 147
106, 110, 105, 113
102, 105, 136, 114
121, 107, 108, 98
117, 103, 113, 106
119, 116, 108, 124
118, 101, 113, 99
114, 107, 115, 100
108, 95, 106, 105
100, 108, 95, 94
122, 124, 109, 114
115, 125, 103, 109
115, 119, 96, 123
109, 125, 96, 97
106, 104, 98, 108
103, 91, 118, 112
108, 115, 127, 140
103, 107, 113, 110
105, 105, 116, 100
137, 95, 111, 112
107, 143, 114, 103
118, 111, 104, 110
91, 89, 118, 117
123, 114, 111, 119
96, 101, 123, 102
108, 134, 110, 113
100, 111, 113, 121
116, 111, 108, 111
118, 104, 112, 100
96, 107, 98, 106
98, 115, 101, 101
103, 106, 102, 114
113, 113, 120, 122
140, 99, 94, 133
112, 87, 111, 106
119, 114, 104, 104
126, 119, 101, 106
120, 110, 107, 118
107, 127, 98, 121
103, 100, 91, 94
116, 118, 115, 104
119, 106, 100, 112
112, 112, 100, 125
114, 111, 120, 104
123, 91, 107, 123
114, 107, 88, 106
111, 99, 111, 118
124, 105, 107, 82
119, 120, 110, 114
107, 121, 107, 116
97, 114, 89, 100
99, 112, 107, 116
106, 113, 118, 97
104, 103, 100, 121
93, 106, 106, 95
110, 126, 106, 112
110, 114, 112, 93
126, 119, 105, 107
116, 89, 103, 102
102, 119, 131, 111
128, 128, 118, 95
111, 122, 110, 117
110, 118, 110, 112
115, 99, 109, 117
115, 109, 107, 94
126, 118, 106, 112
95, 94, 112, 113
111, 108, 98, 103
115, 124, 109, 106
91, 109, 120, 129
119, 104, 94, 118
109, 112, 103, 112
105, 115, 119, 112
100, 113, 118, 109
109, 93, 106, 121
115, 115, 116, 98
120, 102, 103, 103
101, 120, 114, 90
126, 95, 114, 135
125, 109, 119, 84
116, 128, 113, 113
102, 104, 134, 112
88, 105, 93, 106
110, 109, 102, 134
108, 118, 124, 105
105, 117, 94, 115
115, 94, 116, 118
99, 107, 112, 121
100, 123, 116, 115
108, 130, 105, 111
107, 111, 108, 97
127, 114, 108, 103
98, 132, 114, 117
105, 107, 119, 113
98, 116, 99, 125
131, 109, 120, 105
117, 111, 130, 119
120, 107, 117, 115
107, 114, 112, 124
123, 100, 113, 97
108, 106, 113, 105
109, 115, 109, 88
128, 100, 127, 121
85, 99, 99, 92
117, 115, 110, 133
109, 113, 117, 120
101, 126, 120, 90
105, 115, 98, 124
125, 127, 110, 120
109, 119, 112, 110
99, 108, 110, 121
119, 109, 119, 94
104, 111, 120, 109
106, 90, 107, 111
102, 110, 114, 113
115, 110, 105, 117
119, 107, 103, 136
101, 105, 106, 129
129, 110, 110, 118
119, 113, 109, 121
101, 121, 113, 106
97, 107, 102, 114
108, 113, 124, 101
103, 120, 102, 105
107, 117, 107, 119
106, 101, 107, 120
109, 120, 132, 115
113, 107, 117, 94
109, 115, 99, 110
101, 127, 107, 132
106, 137, 118, 101
103, 101, 108, 112
113, 105, 120, 109
114, 102, 96, 135
115, 96, 117, 118
117, 114, 123, 120
123, 113, 122, 123
103, 97, 129, 93
115, 105, 107, 117
115, 106, 113, 123
128, 118, 121, 118
114, 119, 112, 109
121, 125, 118, 116
128, 124, 132, 113
125, 104, 116, 93
108, 109, 111, 107
123, 114, 125, 135
99, 110, 116, 107
110, 125, 103, 108
122, 101, 110, 84
115, 123, 132, 98
116, 104, 120, 108
148, 108, 98, 96
126, 128, 78, 118
100, 120, 123, 81
107, 122, 116, 107
129, 119, 113, 109
104, 106, 128, 109
112, 117, 102, 110
140, 131, 121, 100
100, 104, 111, 131
132, 125, 123, 104
104, 136, 113, 83
125, 129, 113, 132
114, 98, 108, 122
116, 140, 117, 116
132, 112, 117, 98
93, 108, 110, 113
125, 123, 107, 121
115, 112, 101, 122
135, 112, 120, 137
135, 113, 115, 106
101, 132, 120, 120
117, 117, 136, 118
111, 148, 100, 87
96, 123, 113, 105
111, 107, 89, 122
94, 120, 120, 105
125, 128, 102, 127
110, 127, 102, 109
122, 127, 129, 86
119, 110, 111, 111
108, 100, 112, 121
118, 125, 99, 110
120, 103, 125, 105
136, 119, 118, 100
105, 102, 114, 96
95, 125, 112, 118
91, 119, 126, 132
112, 113, 115, 116
131, 119, 124, 116
106, 133, 125, 108
111, 115, 88, 123
115, 109, 117, 117
117, 125, 124, 104
122, 94, 127, 115
106, 113, 104, 113
121, 128, 110, 106
122, 139, 120, 99
101, 111, 121, 132
131, 110, 120, 129
119, 89, 120, 131
102, 106, 120, 115
101, 122, 95, 127
120, 128, 98, 120
115, 123, 123, 140
105, 133, 123, 117
139, 110, 111, 127
132, 116, 100, 116
106, 120, 111, 127
109, 114, 126, 92
114, 105, 98, 115
84, 119, 132, 111
122, 113, 131, 122
116, 142, 118, 105
137, 122, 101, 106
105, 118, 129, 100
126, 115, 124, 116
105, 122, 103, 109
104, 104, 91, 112
109, 101, 105, 101
117, 121, 100, 113
98, 106, 117, 115
121, 111, 120, 129
113, 124, 113, 107
93, 126, 116, 100
117, 112, 120, 107
105, 112, 121, 108
99, 103, 120, 109
111, 109, 111, 116
117, 140, 101, 101
117, 112, 100, 121
112, 119, 115, 102
115, 117, 114, 102
127, 131, 111, 98
105, 122, 123, 125
120, 139, 119, 115
135, 124, 141, 89
102, 112, 119, 119
112, 125, 109, 112
125, 137, 119, 131
121, 120, 116, 130
126, 130, 124, 110
113, 122, 153, 152
142, 124, 135, 139
120, 142, 136, 181
173, 181, 206, 202
237, 255, 289, 306
271, 303, 316, 251
210, 172, 185, 164
149, 114, 137, 121
115, 113, 114, 121
101, 125, 112, 102
134, 106, 123, 116
135, 105, 113, 125
120, 117, 133, 127
125, 124, 136, 106
118, 133, 129, 112
123, 126, 103, 102
115, 113, 132, 113
132, 113, 114, 115
106, 126, 108, 114
116, 126, 126, 133
112, 114, 131, 115
105, 127, 125, 106
134, 135, 105, 122
125, 134, 119, 143
117, 122, 126, 132
117, 129, 102, 110
147, 114, 114, 115
110, 119, 123, 131
129, 122, 135, 127
131, 132, 118, 109
132, 126, 122, 111
133, 123, 94, 147
113, 124, 135, 118
94, 141, 119, 117
126, 138, 135, 113
124, 115, 131, 114
120, 106, 110, 123
129, 110, 140, 143
103, 133, 131, 126
125, 114, 127, 106
120, 125, 133, 131
126, 118, 114, 131
121, 135, 137, 139
116, 146, 149, 124
147, 138, 141, 133
131, 140, 119, 146
121, 144, 145, 101
131, 135, 123, 145
126, 153, 134, 119
143, 146, 118, 121
121, 157, 116, 145
162, 137, 129, 138
148, 151, 162, 152
149, 139, 150, 147
143, 181, 156, 169
166, 156, 164, 168
157, 159, 168, 166
157, 181, 160, 158
157, 158, 148, 143
151, 183, 196, 172
173, 177, 219, 191
191, 231, 229, 249
301, 363, 385, 441
492, 520, 587, 561
545, 447, 429, 351
324, 245, 255, 209
172, 182, 180, 184
172, 175, 197, 160
142, 196, 173, 152
177, 175, 162, 178
193, 205, 194, 214
197, 226, 217, 211
221, 200, 197, 208
185, 204, 178, 187
171, 183, 172, 173
161, 182, 176, 172
151, 165, 187, 166
178, 193, 173, 163
187, 169, 167, 177
171, 163, 176, 186
149, 180, 171, 163
166, 147, 170, 176
154, 184, 195, 190
203, 170, 170, 192
198, 160, 176, 173
159, 174, 194, 193
166, 193, 201, 182
196, 161, 177, 191
187, 149, 203, 212
182, 203, 157, 182
215, 183, 198, 195
166, 201, 197, 198
164, 186, 157, 198
196, 200, 185, 183
188, 186, 199, 194
184, 180, 201, 189
199, 202, 201, 205
197, 225, 185, 196
166, 218, 201, 230
201, 194, 232, 224
229, 210, 253, 227
231, 237, 259, 261
242, 292, 315, 331
359, 377, 394, 430
486, 572, 715, 841
928, 996, 1097, 1151
1154, 1098, 1107, 1202
1380, 1547, 1836, 2357
3217, 4612, 6607, 10190
16153, 21573.4, 28531, 31706.3
29091.4, 23254.4, 18771.6, 13588.4
9538, 7194, 6852, 8093
10821, 13547, 14407, 13512
11259, 8595, 5840, 3879
2435, 1583, 1094, 825
646, 566, 492, 438
421, 362, 380, 358
329, 340, 301, 271
266, 269, 268, 260
239, 263, 254, 220
235, 233, 233, 204
203, 199, 206, 208
192, 174, 196, 172
179, 178, 181, 179
212, 189, 182, 173
191, 171, 195, 185
168, 185, 175, 164
164, 166, 166, 186
144, 169, 162, 182
175, 153, 162, 155
142, 165, 177, 176
141, 154, 151, 177
167, 147, 152, 157
142, 148, 138, 129
146, 134, 137, 156
145, 147, 148, 136
141, 133, 139, 157
161, 138, 154, 158
138, 127, 177, 141
139, 138, 135, 149
147, 162, 158, 166
160, 153, 140, 165
168, 143, 158, 134
173, 151, 145, 140
159, 128, 144, 148
155, 157, 155, 153
154, 166, 157, 146
155, 148, 157, 139
153, 147, 173, 169
151, 170, 155, 161
171, 178, 168, 150
159, 179, 157, 155
159, 153, 146, 168
152, 175, 158, 191
155, 182, 191, 174
213, 194, 165, 191
196, 228, 199, 202
232, 220, 242, 255
257, 259, 290, 321
297, 393, 428, 506
549, 608, 672, 830
848, 947, 1037, 1181
1279, 1364, 1539, 1766
1922, 2159, 2393, 2798
3222, 3773, 4233, 4599
4690, 5033, 5280, 5248
5275, 5248, 5009, 5054
4979, 5053, 4907, 5028
4926, 4854, 4543, 4107
3728, 3207, 2880, 2481
2234, 2127, 1938, 1754
1664, 1446, 1304, 1174
980, 780, 603, 548
502, 470, 452, 423
402, 365, 352, 342
373, 315, 331, 317
300, 272, 275, 289
286, 247, 245, 258
233, 270, 221, 238
239, 192, 193, 200
212, 170, 175, 170
161, 170, 192, 154
163, 161, 165, 126
154, 145, 154, 124
149, 157, 150, 146
141, 148, 125, 136
125, 145, 128, 132
118, 133, 161, 135
132, 137, 141, 139
126, 126, 150, 144
147, 110, 145, 125
126, 127, 127, 132
140, 129, 149, 134
132, 141, 133, 129
150, 114, 138, 119
126, 132, 120, 133
135, 123, 119, 142
124, 134, 129, 140
137, 116, 110, 135
139, 138, 114, 136
114, 130, 130, 127
126, 114, 122, 124
116, 130, 111, 139
122, 119, 130, 134
122, 106, 128, 117
122, 131, 124, 126
121, 122, 126, 127
133, 124, 131, 135
138, 139, 141, 124
158, 141, 129, 131
102, 112, 129, 111
122, 135, 124, 118
126, 121, 110, 109
114, 143, 136, 132
122, 110, 113, 145
137, 135, 125, 108
112, 121, 113, 138
126, 112, 100, 117
116, 116, 123, 119
137, 149, 140, 108
106, 121, 123, 135
133, 142, 117, 130
130, 135, 137, 116
132, 105, 140, 130
123, 114, 129, 125
111, 103, 138, 120
123, 110, 106, 140
117, 136, 124, 119
105, 130, 122, 111
111, 136, 128, 145
128, 122, 125, 91
115, 123, 127, 99
131, 115, 125, 120
135, 122, 117, 104
113, 104, 133, 127
119, 112, 128, 108
112, 144, 132, 120
128, 121, 138, 92
131, 113, 123, 133
125, 120, 138, 135
143, 123, 144, 145
111, 135, 124, 110
131, 123, 115, 123
105, 115, 111, 118
153, 124, 122, 133
127, 133, 110, 132
116, 139, 122, 120
111, 123, 151, 124
117, 142, 130, 138
109, 112, 128, 110
119, 118, 120, 118
111, 135, 129, 117
97, 94, 118, 111
123, 125, 110, 120
123, 103, 129, 133
128, 103, 136, 121
113, 129, 115, 136
132, 129, 139, 114
110, 118, 108, 131
102, 114, 118, 108
126, 117, 117, 124
106, 121, 109, 120
116, 136, 110, 128
110, 113, 127, 127
97, 105, 123, 128
119, 125, 132, 132
101, 98, 115, 107
124, 115, 128, 119
125, 119, 121, 113
143, 121, 115, 141
112, 137, 126, 137
140, 120, 128, 142
136, 127, 168, 122
127, 111, 127, 140
113, 134, 142, 120
145, 115, 120, 117
131, 139, 122, 127
148, 142, 111, 119
106, 108, 119, 132
130, 120, 127, 119
115, 100, 133, 117
120, 141, 102, 109
111, 101, 113, 114
118, 149, 137, 98
116, 120, 131, 99
122, 116, 109, 125
95, 126, 102, 130
114, 132, 113, 120
106, 137, 132, 121
120, 113, 131, 117
128, 115, 142, 108
118, 115, 128, 125
128, 143, 116, 117
137, 113, 148, 139
139, 128, 106, 117
122, 116, 113, 99
141, 132, 130, 128
115, 118, 127, 113
136, 105, 136, 121
111, 112, 132, 133
119, 130, 131, 108
130, 114, 135, 111
123, 114, 118, 124
124, 127, 113, 131
108, 124, 119, 101
102, 121, 122, 121
120, 125, 130, 115
148, 118, 122, 123
103, 146, 118, 121
134, 136, 116, 120
121, 130, 121, 119
129, 116, 97, 116
126, 115, 128, 138
102, 135, 121, 105
121, 118, 135, 131
121, 126, 130, 103
129, 124, 133, 143
119, 123, 122, 151
125, 126, 102, 118
115, 115, 125, 141
127, 126, 113, 126
127, 132, 131, 145
156, 116, 121, 114
132, 136, 123, 138
121, 143, 119, 141
113, 111, 132, 121
130, 134, 131, 142
131, 120, 122, 124
130, 126, 133, 135
110, 144, 120, 144
123, 107, 122, 117
110, 115, 137, 119
125, 125, 117, 97
125, 113, 113, 106
116, 127, 120, 137
113, 125, 124, 110
150, 109, 99, 113
136, 126, 130, 105
129, 111, 121, 127
136, 115, 131, 128
114, 102, 128, 110
129, 126, 106, 119
117, 125, 113, 106
102, 127, 125, 138
121, 116, 125, 117
108, 142, 142, 106
134, 107, 116, 124
106, 124, 135, 123
127, 124, 116, 126
106, 127, 101, 129
110, 133, 113, 143
120, 118, 126, 97
123, 144, 133, 121
116, 128, 130, 130
127, 129, 122, 143
135, 123, 127, 114
130, 127, 110, 118
141, 114, 133, 129
128, 141, 110, 139
119, 119, 131, 109
132, 128, 136, 112
122, 134, 113, 130
104, 130, 124, 129
113, 124, 132, 117
128, 120, 132, 129
132, 114, 136, 136
110, 107, 127, 141
134, 112, 121, 109
113, 124, 117, 136
131, 145, 120, 136
121, 129, 108, 112
117, 98, 110, 142
126, 117, 112, 122
146, 127, 117, 119
131, 138, 113, 112
124, 109, 137, 126
114, 108, 107, 115
115, 120, 123, 120
124, 141, 126, 136
139, 119, 109, 115
122, 121, 133, 101
131, 116, 123, 130
130, 121, 138, 118
116, 147, 115, 122
127, 125, 109, 124
130, 119, 116, 117
119, 134, 136, 92
127, 123, 129, 110
123, 119, 106, 157
110, 126, 125, 129
113, 116, 129, 130
119, 127, 127, 133
136, 117, 139, 116
116, 140, 123, 127
125, 117, 112, 136
138, 121, 101, 129
119, 130, 123, 143
126, 119, 106, 136
127, 120, 112, 120
115, 108, 141, 122
126, 118, 113, 150
138, 127, 133, 115
111, 150, 144, 127
108, 108, 117, 120
125, 119, 106, 135
127, 134, 129, 115
138, 122, 124, 117
125, 128, 139, 123
127, 136, 111, 128
136, 104, 121, 104
135, 128, 133, 119
125, 122, 117, 150
128, 121, 123, 119
110, 103, 120, 111
126, 106, 101, 119
116, 121, 116, 99
129, 122, 117, 127
104, 117, 102, 117
138, 103, 133, 120
110, 108, 106, 123
110, 118, 146, 100
106, 113, 122, 111
121, 132, 112, 110
103, 130, 121, 112
110, 116, 124, 112
147, 107, 127, 105
139, 105, 117, 125
112, 122, 115, 128
117, 109, 130, 154
122, 146, 134, 127
124, 129, 134, 120
115, 123, 125, 129
107, 110, 132, 134
147, 129, 124, 118
116, 144, 118, 119
125, 115, 105, 120
116, 129, 129, 118
137, 137, 123, 115
128, 124, 120, 122
136, 142, 124, 99
110, 141, 114, 129
120, 134, 114, 112
146, 120, 124, 122
132, 107, 114, 97
150, 116, 147, 129
130, 127, 123, 130
151, 132, 138, 138
122, 127, 96, 137
108, 126, 131, 124
124, 121, 145, 133
116, 130, 131, 129
146, 114, 111, 116
124, 155, 119, 101
128, 134, 131, 125
112, 129, 113, 129
131, 139, 137, 118
138, 112, 148, 146
134, 131, 128, 126
122, 137, 113, 129
134, 139, 132, 121
144, 129, 127, 123
122, 124, 156, 117
107, 119, 130, 130
123, 138, 125, 109
123, 123, 123, 131
130, 119, 127, 128
116, 135, 129, 118
127, 142, 132, 140
112, 107, 146, 132
131, 128, 129, 124
115, 112, 129, 139
99, 134, 135, 123
122, 106, 138, 122
139, 108, 112, 128
125, 132, 112, 118
116, 116, 120, 109
142, 129, 135, 120
124, 125, 136, 155
126, 136, 120, 125
114, 135, 114, 135
128, 135, 124, 147
130, 135, 128, 120
132, 145, 110, 114
121, 123, 118, 135
127, 119, 140, 127
138, 134, 140, 96
127, 126, 138, 121
123, 111, 125, 138
126, 132, 104, 120
116, 130, 126, 132
106, 99, 118, 106
133, 141, 130, 124
123, 109, 144, 122
128, 143, 108, 124
142, 126, 142, 112
119, 121, 128, 137
120, 133, 116, 101
144, 115, 133, 124
109, 102, 153, 128
119, 134, 126, 122
98, 119, 128, 143
140, 131, 137, 126
124, 139, 122, 127
131, 122, 142, 131
121, 127, 111, 129
124, 131, 136, 115
125, 139, 127, 125
123, 120, 111, 131
152, 149, 108, 133
115, 136, 128, 144
132, 128, 148, 122
139, 116, 137, 104
128, 130, 136, 142
113, 121, 141, 121
130, 129, 127, 153
137, 141, 113, 140
134, 119, 123, 124
123, 122, 117, 124
113, 109, 126, 122
139, 140, 142, 128
158, 159, 135, 114
141, 128, 116, 131
132, 131, 128, 131
137, 142, 124, 136
114, 142, 124, 100
136, 115, 116, 123
120, 132, 143, 134
121, 150, 113, 134
123, 127, 126, 108
146, 145, 137, 141
134, 129, 118, 113
132, 151, 118, 131
140, 126, 124, 128
135, 137, 138, 139
125, 138, 134, 130
122, 131, 115, 132
126, 125, 139, 142
122, 133, 110, 142
122, 129, 121, 133
106, 132, 109, 111
114, 135, 141, 140
131, 132, 139, 145
110, 125, 137, 120
143, 144, 147, 122
116, 138, 118, 134
105, 131, 124, 102
144, 115, 108, 111
107, 130, 142, 142
115, 113, 138, 124
134, 144, 112, 117
128, 119, 125, 114
108, 115, 116, 122
132, 132, 135, 122
125, 120, 145, 117
138, 113, 126, 141
125, 107, 130, 137
127, 142, 115, 133
130, 120, 123, 109
116, 122, 129, 113
126, 118, 124, 136
119, 112, 132, 117
138, 118, 134, 133
117, 131, 110, 130
147, 118, 123, 103
134, 127, 108, 135
126, 124, 106, 128
139, 126, 122, 106
127, 130, 129, 129
128, 116, 118, 121
117, 121, 136, 138
136, 117, 107, 129
123, 117, 124, 135
139, 152, 117, 133
121, 113, 127, 130
125, 144, 114, 115
126, 123, 116, 133
112, 143, 140, 126
97, 104, 148, 136
129, 125, 129, 146
103, 129, 150, 109
120, 104, 108, 125
136, 118, 124, 117
131, 124, 116, 113
125, 134, 143, 108
113, 141, 113, 119
129, 114, 122, 123
135, 145, 127, 139
106, 129, 107, 128
118, 132, 125, 124
131, 124, 104, 110
146, 132, 131, 142
129, 126, 126, 125
108, 113, 123, 108
126, 121, 114, 139
148, 120, 125, 130
136, 141, 119, 123
121, 112, 123, 124
115, 117, 147, 114
137, 131, 136, 126
137, 113, 116, 154
143, 142, 121, 117
101, 117, 109, 131
108, 120, 90, 136
126, 137, 109, 107
107, 106, 132, 112
129, 139, 133, 130
134, 118, 139, 132
138, 137, 136, 116
114, 110, 114, 109
116, 109, 121, 127
115, 126, 123, 122
144, 141, 122, 121
121, 119, 133, 129
136, 103, 112, 123
115, 107, 112, 104
121, 132, 109, 119
118, 92, 114, 112
110, 132, 130, 123
111, 131, 104, 147
109, 110, 121, 128
115, 148, 124, 106
130, 115, 118, 118
106, 140, 126, 100
125, 127, 120, 119
113, 104, 123, 105
119, 129, 132, 109
140, 135, 111, 131
132, 119, 116, 118
124, 131, 120, 126
115, 142, 130, 142
135, 111, 107, 114
112, 144, 117, 122
133, 127, 114, 122
128, 124, 124, 123
132, 142, 116, 116
119, 124, 109, 134
116, 113, 133, 122
150, 103, 114, 108
109, 137, 135, 120
112, 115, 129, 119
121, 129, 111, 122
120, 119, 133, 139
109, 102, 136, 129
121, 126, 115, 135
97, 131, 131, 122
121, 108, 111, 119
102, 138, 128, 119
145, 99, 131, 117
114, 111, 139, 135
113, 141, 107, 126
136, 128, 125, 129
122, 116, 125, 142
129, 138, 119, 129
114, 112, 121, 125
143, 102, 101, 133
119, 136, 119, 117
109, 114, 112, 135
113, 118, 108, 120
130, 114, 117, 135
138, 118, 141, 123
118, 142, 114, 113
113, 143, 131, 111
123, 125, 134, 137
124, 120, 120, 121
128, 117, 126, 122
126, 124, 141, 132
128, 145, 130, 126
128, 145, 111, 117
121, 134, 125, 130
141, 126, 131, 120
119, 150, 127, 133
126, 142, 128, 115
131, 123, 130, 126
117, 114, 114, 111
144, 121, 106, 124
149, 160, 109, 137
123, 139, 153, 130
144, 123, 152, 155
143, 142, 156, 124
125, 143, 131, 127
154, 148, 149, 142
141, 139, 142, 151
148, 143, 150, 138
160, 140, 167, 148
119, 161, 160, 160
157, 160, 162, 139
159, 140, 148, 128
130, 124, 128, 122
145, 132, 133, 120
134, 141, 126, 131
120, 126, 140, 120
138, 124, 125, 136
135, 103, 119, 123
138, 123, 122, 119
108, 134, 115, 118
139, 137, 145, 110
137, 137, 110, 137
107, 135, 123, 118
136, 138, 137, 141
104, 120, 128, 122
103, 125, 103, 148
127, 125, 119, 132
120, 137, 116, 115
130, 112, 136, 133
109, 146, 123, 118
132, 135, 131, 120
119, 132, 145, 135
124, 116, 124, 136
123, 139, 140, 147
114, 114, 127, 146
132, 121, 138, 141
149, 125, 116, 138
122, 116, 122, 106
116, 106, 119, 123
138, 123, 134, 124
124, 106, 112, 132
119, 123, 135, 113
124, 117, 137, 127
153, 120, 118, 133
104, 112, 111, 111
129, 120, 128, 123
141, 130, 122, 113
147, 118, 129, 114
117, 130, 134, 125
127, 104, 114, 112
131, 132, 100, 116
126, 122, 142, 141
127, 117, 104, 128
163, 144, 128, 117
123, 122, 128, 119
127, 130, 132, 126
131, 133, 130, 128
125, 114, 119, 126
127, 129, 129, 137
129, 141, 105, 125
125, 130, 149, 128
128, 132, 132, 131
115, 134, 133, 103
134, 144, 119, 131
124, 119, 134, 146
136, 137, 133, 134
145, 132, 148, 120
107, 127, 125, 123
132, 111, 137, 150
140, 122, 122, 126
156, 135, 123, 133
149, 139, 142, 133
133, 117, 112, 127
111, 137, 136, 140
113, 140, 122, 107
111, 140, 137, 128
141, 120, 132, 128
145, 124, 108, 132
105, 138, 124, 115
118, 126, 132, 121
125, 131, 134, 130
114, 107, 131, 146
111, 123, 114, 127
141, 134, 138, 115
128, 103, 131, 131
133, 128, 130, 113
126, 126, 130, 127
121, 129, 113, 116
130, 122, 108, 129
112, 135, 139, 136
113, 141, 129, 128
110, 107, 132, 109
123, 106, 126, 125
125, 114, 121, 112
128, 122, 143, 119
147, 125, 140, 131
126, 156, 134, 137
134, 125, 120, 117
99, 131, 134, 120
123, 119, 123, 108
122, 136, 128, 142
124, 134, 130, 134
129, 123, 131, 122
126, 124, 125, 141
130, 124, 136, 119
128, 134, 111, 125
125, 130, 116, 128
131, 115, 134, 127
129, 110, 121, 118
134, 119, 122, 129
138, 112, 151, 129
117, 131, 142, 113
117, 123, 118, 113
143, 120, 94, 147
133, 106, 109, 137
160, 113, 131, 141
119, 121, 107, 136
131, 113, 119, 121
123, 122, 102, 125
120, 140, 119, 129
131, 128, 121, 122
121, 116, 135, 123
127, 125, 114, 123
129, 135, 115, 120
136, 106, 147, 123
123, 128, 125, 135
120, 135, 114, 115
104, 121, 126, 112
144, 114, 142, 127
121, 138, 132, 119
121, 128, 104, 120
101, 132, 108, 127
118, 129, 124, 109
109, 119, 126, 121
118, 108, 147, 129
127, 124, 126, 120
151, 117, 112, 131
109, 115, 116, 125
128, 96, 119, 127
125, 97, 99, 112
119, 126, 114, 112
120, 117, 136, 145
146, 126, 127, 124
130, 110, 138, 135
120, 135, 124, 139
125, 132, 131, 121
107, 116, 132, 128
114, 137, 132, 127
126, 134, 119, 115
133, 107, 128, 129
130, 121, 102, 121
111, 124, 106, 112
123, 124, 125, 114
122, 103, 134, 141
133, 120, 130, 129
126, 133, 142, 121
138, 123, 125, 123
115, 126, 116, 130
142, 131, 119, 104
113, 130, 123, 132
120, 114, 130, 113
119, 121, 120, 117
142, 120, 120, 111
130, 125, 137, 122
135, 121, 108, 121
107, 117, 127, 109
124, 125, 148, 131
141, 114, 123, 151
112, 133, 126, 125
121, 112, 125, 121
126, 120, 155, 132
133, 107, 130, 118
138, 151, 119, 123
146, 133, 128, 130
127, 124, 131, 126
104, 135, 122, 116
116, 125, 143, 136
111, 129, 134, 134
114, 129, 114, 134
153, 121, 110, 122
138, 137, 151, 144
147, 128, 148, 141
166, 141, 132, 149
138, 135, 172, 138
160, 124, 157, 146
143, 142, 151, 149
127, 159, 164, 153
144, 126, 147, 142
138, 128, 126, 139
119, 145, 135, 123
142, 117, 139, 122
128, 128, 151, 134
117, 120, 133, 137
140, 132, 125, 111
134, 147, 132, 147
110, 126, 134, 137
130, 127, 136, 142
131, 129, 135, 109
97, 145, 127, 138
144, 118, 127, 156
129, 116, 145, 125
125, 106, 118, 99
124, 130, 128, 142
133, 137, 146, 127
126, 129, 125, 132
151, 112, 129, 145
116, 131, 131, 112
131, 150, 130, 119
122, 119, 122, 147
124, 134, 137, 114
138, 131, 131, 135
125, 117, 135, 122
129, 123, 141, 138
144, 130, 118, 120
110, 135, 126, 121
131, 133, 109, 119
139, 122, 113, 121
121, 132, 122, 143
127, 115, 142, 138
120, 138, 138, 130
124, 117, 132, 132
132, 132, 129, 135
162, 126, 129, 109
151, 150, 141, 130
147, 133, 133, 109
160, 110, 125, 143
121, 123, 124, 128
146, 137, 127, 137
150, 113, 134, 122
126, 126, 124, 132
143, 123, 141, 124
160, 131, 148, 107
135, 120, 111, 138
143, 126, 142, 115
138, 132, 135, 121
137, 130, 131, 137
115, 137, 116, 124
140, 112, 140, 118
133, 128, 141, 140
146, 134, 146, 110
113, 140, 151, 147
151, 135, 142, 129
151, 118, 118, 131
129, 124, 133, 129
132, 132, 126, 130
114, 124, 140, 122
144, 133, 122, 126
141, 129, 123, 124
133, 135, 139, 147
138, 120, 126, 134
117, 129, 113, 129
138, 120, 137, 115
129, 126, 127, 134
137, 148, 132, 156
133, 134, 130, 144
129, 133, 125, 121
139, 147, 129, 127
148, 141, 131, 114
128, 154, 150, 145
131, 142, 137, 129
135, 159, 120, 158
148, 128, 155, 155
159, 156, 154, 177
181, 157, 143, 159
162, 150, 178, 163
174, 180, 165, 162
175, 180, 190, 202
200, 218, 216, 224
237, 240, 254, 266
305, 338, 360, 417
462, 469, 537, 636
670, 708, 742, 881
892, 904, 1020, 1044
1050, 1182, 1171, 1233
1238, 1253, 1365, 1317
1431, 1392, 1363, 1467
1436, 1455, 1472, 1470
1504, 1486, 1508, 1425
1446, 1435, 1340, 1434
1325, 1261, 1144, 1040
941, 800, 840, 810
775, 738, 759, 690
678, 674, 665, 639
650, 621, 574, 542
479, 535, 451, 436
393, 332, 275, 286
242, 196, 183, 186
168, 174, 164, 143
155, 154, 157, 139
152, 136, 135, 153
146, 179, 133, 145
140, 134, 167, 129
144, 135, 118, 151
141, 137, 145, 150
137, 141, 147, 140
121, 155, 123, 135
121, 136, 140, 118
134, 134, 112, 139
140, 141, 128, 153
146, 146, 131, 122
137, 125, 136, 118
131, 120, 124, 131
119, 139, 142, 150
119, 116, 130, 145
133, 146, 143, 115
114, 133, 131, 127
134, 138, 164, 147
127, 123, 117, 132
113, 156, 127, 125
122, 123, 128, 140
117, 125, 137, 122
129, 108, 122, 136
126, 124, 125, 137
151, 126, 125, 123
122, 130, 131, 127
124, 128, 118, 130
138, 113, 107, 120
128, 135, 127, 131
122, 126, 119, 132
146, 118, 151, 119
154, 109, 124, 104
130, 131, 122, 135
132, 123, 136, 120
137, 115, 139, 129
136, 122, 116, 125
131, 116, 138, 139
121, 133, 129, 116
115, 123, 132, 125
139, 119, 124, 139
149, 123, 135, 113
115, 120, 137, 129
130, 117, 143, 137
117, 140, 159, 126
134, 121, 135, 118
129, 125, 122, 143
91, 135, 127, 103
124, 143, 122, 121
135, 139, 143, 128
146, 115, 141, 119
139, 145, 132, 141
140, 139, 158, 129
119, 140, 124, 113
140, 125, 131, 127
146, 128, 123, 125
126, 125, 117, 122
121, 131, 134, 137
125, 127, 146, 130
129, 127, 127, 139
135, 140, 137, 126
122, 125, 134, 108
124, 136, 123, 136
124, 124, 131, 115
119, 126, 116, 129
116, 131, 146, 128
111, 153, 108, 113
129, 129, 135, 126
129, 89, 127, 129
121, 156, 98, 124
133, 125, 131, 130
129, 118, 113, 115
130, 128, 126, 139
126, 135, 152, 122
138, 117, 121, 112
138, 100, 117, 103
132, 145, 131, 116
153, 114, 133, 135
118, 116, 130, 139
123, 129, 129, 119
140, 131, 156, 137
124, 127, 133, 121
143, 123, 155, 129
100, 151, 143, 127
131, 130, 143, 133
140, 139, 122, 133
130, 126, 148, 138
119, 117, 138, 131
129, 139, 127, 134
146, 126, 129, 130
132, 138, 119, 125
148, 129, 131, 116
126, 157, 127, 135
138, 134, 135, 143
123, 156, 117, 138
123, 132, 122, 133
148, 143, 124, 122
138, 139, 165, 146
160, 154, 163, 182
176, 176, 211, 192
206, 251, 219, 213
227, 229, 278, 240
261, 267, 303, 329
410
*END

*EOF
