*TYPE		=  Raw
*CLASS		=  ASCII CLASS
*SAMPLE		=   
*COMMENT	=   
*FNAME		=  3-1_2-Theta_Omega.asc
*DATE		=  11-Dec-25 16:12

*GROUP_COUNT	=  1
*GONIO		=  SmartLab(In-plane), 0.000000
*ATTACHMENT	=  Z-Phi Stage
*ASC		=  0, 0, 0.000000, 0.000000
*I_MONOCHRO	=  Soller_slit_5.0deg, 0.000000
*FILTER		=  None
*C_MONOCHRO	=  None, 0.000000
*SLIT_NAME	=  0, Incident slit
*SLIT_NAME	=  1, Receiving slit # 1
*SLIT_NAME	=  2, Receiving slit # 2
*COUNTER	=  SC-70, 0
*POS_FORMAT	=  0
*SCAN_AXIS	=  2Theta/Omega
*MEAS_MODE	=  Continuous Scanning
*TARGET		=  29
*XRAY_CHAR	=  K-ALPHA
*WAVE_LENGTH1	=  1.54059
*WAVE_LENGTH2	=  1.54441
*THICKNESS	=  0, 0.000000
*MU		=  0, 0.000000
*SCAN_MODE	=  2Theta/Omega
*SPEED_DIM	=  sec./step
*XUNIT		=  deg.
*YUNIT		=  counts
*SCALE_MODE	=  1
*REP_COUNT	=  0
*SE_COUNT	=  0
*STD_MATERIAL	=  Unknown, Unknown, 0.000000, 0.000000, 0.000000, 0.000000, 0.000000, 0.000000
*LATT_CONS	=  0, Unknown, Unknown, 0.000000, 0.000000, 0.000000, 0.000000, 0.000000, 0.000000
*SEC_COUNT	=  1
*TSPEC_SIZE	=  0
*EXTRA_SIZE	=  0
*MEMO		=   

*BEGIN
*GROUP		=  0
*START		=  20
*STOP		=  80
*STEP		=  0.01
*OFFSET		=  0.000000
*SPEED		=  0.05
*SLIT_SPEC	=  0, 1.000mm, 1, 0.000000
*SLIT_SPEC	=  1, 1.000mm, 1, 0.000000
*SLIT_SPEC	=  2, 1.000mm, 1, 0.000000
*KV		=  40
*MA		=  100
*LOW		=  0.000000
*HIGH		=  0.000000
*CTEMPER	=  0, 0.000000
*CTEMPER	=  1, 0.000000
*CTEMPER	=  2, 0.000000
*PAREX		=  0, 0.000000
*PAREX		=  1, 0.000000
*PAREX		=  2, 0.000000
*PAREX		=  3, 0.000000
*PAREX		=  4, 0.000000
*PAREX		=  5, 0.000000
*PAREX		=  6, 0.000000
*PAREX		=  7, 0.000000
*PAREX		=  8, 0.000000
*PAREX		=  9, 0.000000
*PAREX		=  10, 0.000000
*PAREX		=  11, 0.000000
*PAREX		=  12, 0.000000
*PAREX		=  13, 0.000000
*PAREX		=  14, 0.000000
*PAREX		=  15, 0.000000
*FULL_SCALE	=  190440
*INDEX		=  0, 0, 0
*COUNT		=  6001
95, 96, 87, 95
89, 101, 85, 104
109, 93, 88, 82
97, 96, 97, 112
79, 91, 91, 102
98, 89, 86, 92
107, 98, 118, 99
103, 104, 91, 116
93, 83, 107, 97
83, 105, 113, 115
82, 93, 102, 107
83, 82, 89, 103
99, 98, 87, 93
93, 73, 97, 85
85, 101, 95, 74
92, 94, 89, 107
119, 79, 86, 112
97, 97, 86, 100
88, 91, 92, 112
84, 104, 101, 102
85, 91, 105, 100
95, 88, 86, 109
82, 91, 85, 93
86, 93, 90, 91
99, 89, 88, 84
96, 85, 91, 93
99, 87, 93, 123
88, 103, 104, 110
89, 90, 109, 87
103, 92, 89, 87
93, 89, 84, 102
108, 112, 92, 83
73, 97, 94, 98
89, 102, 111, 84
103, 80, 94, 78
95, 92, 83, 105
113, 73, 84, 86
97, 90, 94, 103
100, 101, 88, 97
94, 99, 107, 90
85, 86, 87, 87
92, 101, 93, 83
98, 96, 90, 87
105, 82, 98, 96
104, 81, 109, 91
99, 94, 86, 90
82, 94, 97, 102
96, 96, 86, 104
83, 90, 96, 97
113, 95, 98, 107
82, 92, 89, 101
111, 99, 82, 93
95, 90, 72, 106
111, 83, 98, 103
89, 97, 81, 77
95, 103, 89, 96
89, 105, 83, 97
85, 92, 99, 82
85, 99, 88, 74
115, 101, 90, 98
111, 97, 87, 107
108, 105, 80, 101
99, 79, 94, 86
110, 107, 86, 104
95, 95, 91, 84
103, 80, 104, 94
104, 79, 106, 86
75, 101, 89, 112
96, 98, 104, 95
100, 105, 95, 76
97, 83, 91, 96
106, 113, 82, 89
99, 103, 95, 114
96, 95, 95, 117
100, 106, 101, 89
99, 99, 94, 110
87, 94, 80, 89
99, 94, 111, 89
99, 96, 92, 101
110, 90, 85, 87
74, 106, 115, 92
85, 96, 93, 87
86, 98, 95, 98
95, 89, 98, 87
105, 83, 102, 99
80, 86, 89, 95
110, 94, 111, 97
95, 97, 102, 97
105, 79, 83, 98
101, 93, 91, 109
107, 99, 119, 98
91, 105, 103, 95
85, 90, 98, 88
90, 89, 104, 96
85, 83, 93, 105
80, 97, 93, 117
81, 101, 87, 91
98, 97, 104, 85
111, 97, 84, 108
100, 95, 100, 97
86, 91, 100, 78
104, 96, 84, 93
92, 95, 92, 103
92, 100, 106, 89
87, 87, 103, 92
103, 86, 74, 112
111, 101, 116, 104
92, 87, 108, 113
84, 93, 102, 108
102, 105, 88, 91
90, 98, 102, 87
99, 102, 100, 114
106, 107, 107, 90
95, 93, 98, 120
94, 90, 80, 107
95, 104, 86, 106
96, 103, 90, 98
108, 103, 103, 87
91, 78, 89, 95
93, 104, 84, 106
116, 104, 98, 111
95, 94, 94, 96
93, 81, 106, 90
88, 107, 111, 105
81, 95, 117, 104
97, 91, 84, 102
86, 106, 107, 118
110, 92, 98, 85
113, 90, 103, 103
92, 101, 102, 117
104, 92, 93, 102
91, 101, 102, 101
87, 78, 104, 93
86, 98, 94, 106
89, 97, 97, 88
99, 103, 114, 104
95, 95, 101, 86
88, 105, 82, 91
102, 87, 93, 105
105, 118, 85, 103
99, 106, 103, 77
91, 100, 106, 92
102, 113, 91, 90
91, 102, 100, 107
89, 77, 97, 93
89, 89, 94, 94
84, 89, 124, 126
112, 90, 82, 85
109, 92, 80, 105
112, 104, 100, 93
91, 76, 84, 104
98, 109, 101, 90
97, 100, 105, 105
105, 116, 102, 99
96, 106, 89, 89
90, 93, 87, 106
104, 107, 100, 96
101, 100, 91, 95
100, 83, 82, 103
99, 102, 96, 74
109, 96, 92, 112
114, 107, 93, 84
75, 96, 90, 87
93, 101, 104, 95
102, 113, 97, 105
100, 114, 86, 96
81, 107, 108, 95
102, 97, 93, 103
118, 99, 88, 93
97, 103, 106, 119
68, 94, 100, 108
98, 78, 90, 90
98, 113, 85, 104
96, 111, 95, 98
72, 102, 82, 89
105, 89, 102, 104
102, 104, 99, 108
103, 92, 77, 99
101, 114, 105, 116
84, 99, 106, 89
97, 105, 108, 100
118, 91, 91, 80
102, 96, 105, 88
97, 103, 95, 87
82, 102, 86, 89
101, 97, 99, 90
89, 90, 95, 94
97, 109, 103, 94
109, 103, 106, 111
116, 107, 70, 94
93, 94, 93, 97
108, 108, 105, 90
96, 98, 86, 95
98, 112, 110, 115
101, 89, 107, 101
98, 104, 94, 100
103, 108, 101, 105
87, 100, 111, 100
88, 87, 102, 105
89, 110, 92, 101
117, 100, 107, 115
104, 86, 93, 100
106, 90, 90, 105
103, 116, 108, 102
97, 116, 93, 89
100, 79, 119, 84
84, 107, 96, 83
98, 117, 99, 101
100, 111, 99, 115
100, 90, 122, 83
97, 115, 93, 93
101, 98, 98, 103
94, 102, 109, 104
82, 111, 100, 97
86, 103, 101, 97
110, 96, 99, 98
110, 107, 103, 85
93, 98, 110, 114
118, 96, 100, 100
99, 89, 98, 105
105, 96, 96, 102
90, 102, 101, 88
103, 105, 89, 111
106, 99, 104, 103
92, 97, 111, 110
90, 105, 88, 89
121, 111, 109, 82
96, 85, 97, 99
87, 104, 101, 91
103, 102, 107, 104
90, 91, 100, 87
117, 111, 103, 90
95, 98, 103, 103
103, 99, 103, 102
109, 100, 110, 114
90, 102, 88, 92
100, 103, 92, 86
103, 85, 104, 97
97, 86, 99, 103
89, 107, 90, 98
123, 107, 88, 111
99, 104, 112, 110
107, 111, 92, 103
94, 90, 102, 84
89, 102, 120, 96
93, 98, 125, 109
96, 87, 111, 106
99, 114, 95, 94
110, 92, 77, 94
72, 111, 88, 98
96, 107, 88, 86
90, 98, 97, 105
110, 78, 92, 101
106, 88, 85, 84
92, 98, 105, 118
87, 104, 95, 100
113, 99, 92, 89
96, 90, 108, 99
104, 87, 82, 105
97, 102, 89, 86
107, 114, 93, 106
109, 104, 88, 103
100, 107, 93, 108
105, 96, 95, 104
88, 95, 96, 97
98, 91, 87, 80
114, 94, 96, 101
103, 102, 111, 94
93, 109, 105, 107
111, 105, 123, 92
99, 96, 116, 101
103, 113, 92, 101
102, 108, 104, 102
81, 97, 116, 81
91, 96, 96, 101
97, 115, 106, 95
98, 87, 102, 89
88, 118, 93, 97
110, 92, 94, 99
96, 84, 88, 115
95, 92, 87, 104
126, 95, 94, 99
111, 94, 94, 95
102, 107, 94, 118
94, 110, 99, 105
98, 113, 104, 108
94, 98, 110, 106
97, 113, 99, 96
95, 92, 94, 102
107, 100, 96, 90
135, 106, 108, 96
103, 111, 110, 133
115, 121, 114, 116
127, 131, 105, 123
112, 91, 107, 87
101, 95, 115, 116
108, 109, 109, 103
103, 111, 94, 105
105, 93, 92, 106
109, 82, 110, 115
99, 102, 127, 99
101, 87, 126, 118
96, 102, 109, 97
110, 97, 101, 101
106, 116, 112, 91
101, 93, 100, 88
110, 104, 99, 103
107, 93, 109, 105
118, 101, 99, 100
108, 104, 99, 104
102, 95, 100, 95
115, 103, 76, 103
112, 99, 108, 106
100, 81, 90, 112
118, 86, 77, 110
91, 103, 98, 110
90, 105, 94, 107
94, 111, 94, 104
109, 94, 96, 99
92, 104, 74, 118
93, 101, 103, 88
108, 86, 78, 101
85, 103, 105, 103
80, 106, 98, 109
111, 93, 116, 92
109, 91, 119, 96
96, 105, 109, 100
85, 105, 101, 120
103, 97, 93, 100
112, 99, 110, 112
97, 110, 104, 88
86, 100, 108, 113
94, 97, 102, 96
108, 116, 93, 112
117, 108, 108, 116
101, 126, 96, 83
103, 98, 115, 91
101, 108, 96, 98
95, 107, 96, 85
92, 96, 104, 111
106, 119, 98, 96
104, 108, 118, 102
90, 110, 120, 99
101, 104, 105, 115
105, 100, 93, 90
98, 112, 117, 92
120, 97, 76, 124
93, 111, 121, 103
102, 113, 122, 100
117, 116, 96, 95
96, 92, 93, 105
96, 116, 97, 81
100, 112, 122, 106
100, 97, 105, 119
88, 94, 115, 102
100, 123, 92, 102
100, 121, 95, 111
99, 107, 110, 84
93, 107, 111, 103
87, 121, 95, 100
112, 101, 94, 101
91, 121, 117, 104
93, 110, 93, 104
98, 111, 101, 96
109, 105, 98, 89
103, 102, 102, 96
110, 96, 93, 106
107, 128, 110, 108
114, 121, 111, 103
127, 109, 106, 118
94, 102, 128, 121
110, 106, 103, 103
110, 97, 105, 97
99, 99, 110, 96
96, 108, 122, 103
113, 89, 99, 98
129, 100, 118, 114
120, 108, 115, 106
111, 119, 121, 108
106, 107, 109, 100
102, 123, 123, 108
121, 125, 127, 141
132, 125, 110, 138
116, 159, 118, 120
119, 129, 146, 141
126, 130, 138, 117
160, 151, 160, 155
148, 167, 199, 179
180, 200, 193, 216
220, 198, 210, 221
229, 254, 205, 196
224, 206, 212, 234
192, 192, 226, 180
186, 229, 187, 171
162, 176, 163, 152
165, 150, 137, 116
152, 128, 124, 116
133, 124, 132, 108
139, 130, 124, 130
119, 129, 109, 140
136, 116, 115, 113
121, 107, 112, 144
121, 115, 108, 107
121, 99, 99, 113
126, 120, 94, 115
111, 115, 121, 113
122, 105, 125, 112
119, 112, 112, 98
96, 105, 103, 102
115, 119, 113, 101
109, 124, 102, 117
123, 99, 99, 89
89, 112, 105, 111
111, 118, 105, 108
124, 116, 117, 97
123, 109, 99, 111
115, 99, 108, 109
92, 115, 116, 128
118, 97, 113, 113
115, 127, 105, 116
86, 123, 105, 91
90, 101, 108, 108
114, 97, 109, 96
113, 109, 105, 109
110, 93, 99, 110
121, 111, 78, 106
108, 107, 102, 124
126, 111, 99, 109
106, 115, 110, 121
102, 109, 130, 93
91, 95, 113, 122
94, 101, 93, 105
128, 101, 126, 123
106, 109, 117, 115
102, 91, 115, 92
115, 115, 104, 124
116, 103, 107, 106
106, 110, 129, 113
97, 110, 130, 83
101, 116, 102, 122
112, 108, 109, 102
100, 111, 108, 112
129, 120, 118, 112
112, 100, 103, 93
97, 104, 116, 87
106, 112, 104, 108
113, 101, 119, 97
107, 102, 110, 108
114, 130, 115, 107
99, 106, 106, 113
104, 94, 101, 118
103, 110, 100, 89
110, 113, 101, 105
110, 104, 106, 114
95, 125, 117, 114
109, 92, 114, 124
105, 110, 95, 99
114, 116, 103, 104
113, 114, 111, 109
90, 94, 108, 113
112, 98, 111, 97
100, 122, 87, 99
116, 116, 138, 105
102, 119, 119, 118
133, 118, 119, 92
103, 99, 108, 110
109, 111, 99, 97
119, 116, 115, 93
91, 105, 109, 107
115, 111, 106, 106
115, 101, 115, 113
109, 94, 114, 112
110, 132, 102, 108
133, 116, 133, 122
103, 120, 108, 105
126, 121, 92, 112
106, 109, 136, 121
109, 99, 102, 98
135, 117, 95, 97
107, 107, 103, 104
120, 107, 120, 113
95, 98, 101, 119
119, 113, 90, 113
122, 112, 117, 112
106, 101, 96, 117
127, 108, 121, 120
123, 143, 146, 144
142, 135, 128, 132
136, 144, 146, 150
128, 151, 124, 139
152, 141, 129, 107
121, 136, 117, 119
110, 122, 138, 93
114, 81, 118, 120
108, 111, 100, 115
101, 92, 119, 98
115, 87, 138, 102
104, 114, 115, 118
95, 134, 103, 96
108, 114, 98, 94
104, 107, 107, 100
126, 109, 109, 99
87, 99, 117, 116
104, 110, 96, 109
104, 117, 112, 105
109, 124, 101, 112
120, 85, 104, 105
126, 106, 99, 117
120, 94, 121, 129
135, 136, 92, 122
111, 96, 107, 99
115, 104, 112, 123
107, 104, 99, 84
120, 112, 95, 99
99, 122, 103, 110
128, 85, 125, 103
130, 101, 122, 114
108, 105, 123, 118
109, 115, 106, 105
118, 105, 107, 112
108, 98, 120, 98
118, 85, 120, 118
126, 99, 116, 99
126, 114, 117, 82
111, 125, 90, 93
109, 93, 129, 116
120, 123, 111, 115
109, 113, 116, 120
77, 95, 120, 130
103, 100, 108, 102
118, 116, 89, 100
99, 108, 111, 113
106, 107, 104, 113
108, 106, 116, 101
105, 103, 110, 123
105, 116, 137, 107
131, 109, 119, 114
135, 122, 120, 121
134, 121, 107, 109
119, 126, 137, 105
125, 120, 131, 107
105, 101, 114, 109
101, 104, 117, 114
127, 112, 120, 123
119, 121, 118, 112
112, 133, 115, 107
122, 118, 113, 132
124, 134, 158, 145
152, 167, 150, 137
160, 157, 194, 177
175, 161, 190, 172
181, 168, 202, 190
185, 174, 198, 186
187, 148, 170, 148
165, 166, 166, 156
141, 136, 122, 146
129, 139, 141, 143
133, 144, 93, 124
155, 124, 129, 151
154, 140, 131, 132
120, 135, 150, 136
134, 139, 141, 142
127, 124, 126, 121
126, 109, 132, 152
141, 130, 125, 144
124, 119, 121, 142
149, 115, 141, 111
131, 114, 117, 139
120, 142, 130, 125
129, 129, 139, 123
129, 127, 129, 150
128, 134, 159, 132
141, 145, 150, 147
156, 145, 137, 128
130, 155, 140, 163
118, 156, 128, 173
121, 161, 157, 146
143, 165, 138, 165
127, 145, 149, 145
137, 137, 156, 123
163, 139, 146, 152
156, 140, 143, 148
157, 147, 158, 148
150, 170, 144, 158
152, 150, 148, 158
161, 149, 152, 152
166, 151, 161, 176
134, 178, 156, 165
174, 156, 158, 174
172, 186, 196, 188
191, 207, 215, 213
214, 204, 217, 244
285, 271, 295, 341
301, 353, 367, 419
497, 567, 668, 779
947, 1067, 1327, 1612
1931, 2367, 2806, 3310
4010, 4428, 4799, 5002
5608, 5738, 6094, 6220
6616, 6724, 7201, 7221
7695, 7800, 7935, 7899
7751, 7667, 6982, 6459
5753, 4778, 4327, 3810
3533, 3246, 3177, 3032
2849, 2547, 2336, 1866
1617, 1158, 902, 771
590, 537, 504, 430
383, 431, 345, 353
376, 342, 315, 322
300, 290, 267, 272
281, 278, 285, 233
245, 228, 193, 247
208, 234, 221, 214
171, 186, 163, 198
171, 179, 179, 185
153, 168, 176, 163
149, 144, 141, 146
146, 150, 155, 150
140, 166, 162, 128
139, 153, 150, 117
130, 139, 132, 114
112, 123, 124, 117
129, 122, 128, 119
149, 118, 132, 127
122, 125, 120, 113
121, 105, 127, 129
123, 134, 114, 126
99, 120, 106, 106
122, 98, 108, 127
137, 112, 142, 124
113, 135, 130, 141
128, 106, 118, 134
126, 112, 106, 118
116, 117, 115, 117
126, 104, 127, 111
113, 128, 93, 112
117, 114, 107, 122
137, 112, 123, 105
115, 120, 88, 119
111, 118, 112, 107
123, 106, 116, 126
119, 103, 107, 99
124, 89, 113, 102
111, 110, 99, 114
128, 118, 122, 122
104, 115, 108, 102
122, 114, 126, 107
115, 105, 99, 100
119, 120, 116, 121
108, 120, 107, 106
102, 112, 138, 126
91, 120, 109, 99
112, 125, 119, 113
126, 131, 107, 110
102, 101, 105, 95
110, 109, 103, 126
110, 140, 112, 131
107, 122, 111, 100
116, 93, 116, 115
117, 117, 104, 117
122, 90, 127, 110
103, 110, 100, 89
124, 119, 113, 115
116, 108, 124, 103
106, 116, 115, 116
132, 120, 101, 115
96, 103, 111, 106
116, 96, 125, 136
100, 119, 112, 117
108, 105, 111, 130
117, 101, 137, 104
120, 119, 100, 97
115, 94, 108, 107
111, 123, 122, 98
112, 123, 123, 104
112, 103, 122, 114
120, 109, 106, 97
108, 106, 116, 99
140, 118, 114, 93
115, 98, 94, 126
117, 117, 102, 105
110, 91, 97, 132
114, 118, 120, 106
110, 98, 120, 118
115, 106, 87, 103
101, 100, 102, 126
111, 111, 114, 111
106, 124, 113, 90
102, 107, 113, 98
114, 104, 99, 107
122, 114, 92, 108
112, 105, 126, 109
109, 115, 114, 125
98, 107, 111, 94
93, 94, 103, 115
104, 116, 127, 115
115, 107, 116, 99
116, 104, 116, 110
102, 94, 112, 109
93, 117, 100, 126
105, 114, 127, 103
110, 102, 109, 94
137, 95, 126, 129
113, 102, 120, 106
114, 96, 117, 122
109, 123, 120, 97
135, 118, 107, 105
130, 118, 106, 110
121, 105, 121, 112
121, 126, 113, 123
109, 120, 105, 117
131, 117, 113, 120
114, 120, 123, 123
111, 113, 119, 102
95, 122, 110, 111
115, 138, 85, 113
114, 110, 80, 109
112, 114, 133, 114
100, 91, 102, 105
140, 112, 111, 113
101, 96, 97, 121
88, 104, 105, 113
109, 111, 110, 100
110, 118, 119, 117
103, 109, 101, 121
117, 108, 109, 125
108, 114, 102, 125
103, 107, 123, 110
112, 95, 98, 108
106, 106, 121, 110
122, 117, 107, 103
108, 93, 107, 115
106, 116, 121, 110
107, 108, 101, 118
112, 114, 115, 123
118, 122, 107, 86
124, 115, 100, 98
95, 106, 101, 107
136, 108, 122, 115
126, 106, 114, 104
117, 97, 106, 108
113, 88, 89, 128
116, 108, 96, 94
114, 105, 103, 111
91, 125, 136, 108
131, 128, 102, 125
110, 113, 121, 106
97, 133, 97, 116
134, 104, 107, 112
112, 111, 104, 109
118, 118, 107, 108
99, 116, 113, 107
109, 103, 102, 138
97, 143, 100, 110
118, 119, 101, 109
115, 95, 110, 100
105, 116, 119, 110
101, 106, 109, 111
124, 117, 132, 109
129, 100, 104, 128
85, 122, 111, 105
116, 94, 103, 123
120, 123, 112, 98
103, 112, 108, 101
123, 110, 115, 112
106, 116, 100, 119
102, 90, 108, 110
117, 80, 96, 113
90, 120, 122, 97
105, 108, 108, 103
116, 122, 106, 114
121, 120, 105, 114
119, 118, 94, 123
118, 137, 105, 111
106, 96, 116, 122
123, 120, 118, 109
106, 114, 116, 131
122, 112, 105, 107
117, 105, 109, 122
101, 106, 123, 103
102, 136, 116, 115
116, 96, 129, 106
100, 113, 130, 125
113, 99, 99, 104
95, 124, 122, 113
136, 119, 116, 122
93, 116, 123, 110
124, 105, 101, 115
107, 118, 128, 107
134, 105, 98, 104
117, 104, 114, 115
115, 99, 112, 123
111, 106, 106, 110
106, 109, 129, 121
111, 114, 113, 119
112, 107, 114, 113
116, 105, 107, 113
110, 109, 108, 129
126, 111, 117, 123
109, 99, 119, 108
99, 95, 135, 104
106, 102, 128, 119
104, 118, 106, 100
142, 90, 105, 97
121, 105, 105, 106
113, 104, 110, 100
111, 111, 116, 114
119, 110, 104, 118
105, 106, 114, 102
123, 106, 109, 115
133, 111, 102, 118
115, 105, 106, 112
109, 106, 100, 105
109, 105, 112, 110
122, 103, 117, 114
118, 110, 107, 107
109, 116, 114, 118
114, 120, 102, 101
120, 106, 124, 97
106, 112, 118, 105
103, 115, 119, 115
104, 117, 104, 112
100, 127, 111, 104
113, 116, 127, 113
90, 101, 115, 121
112, 99, 108, 119
134, 118, 117, 121
96, 109, 102, 107
117, 129, 107, 102
134, 101, 100, 112
114, 105, 117, 123
119, 123, 103, 105
93, 101, 114, 120
101, 105, 113, 103
118, 101, 105, 116
123, 103, 108, 126
120, 114, 96, 95
113, 123, 105, 131
106, 110, 108, 115
96, 134, 109, 113
115, 107, 119, 108
110, 92, 112, 107
106, 99, 115, 105
109, 131, 104, 110
114, 99, 123, 122
105, 118, 116, 111
116, 116, 122, 98
133, 111, 117, 90
116, 127, 119, 122
102, 100, 104, 113
120, 111, 131, 99
131, 112, 124, 108
114, 109, 96, 117
116, 107, 104, 101
115, 107, 122, 114
121, 109, 115, 114
112, 93, 104, 108
127, 135, 117, 122
108, 92, 117, 110
126, 107, 115, 121
118, 120, 116, 95
102, 118, 96, 131
103, 118, 111, 111
105, 120, 123, 118
118, 122, 131, 94
125, 97, 93, 119
96, 120, 115, 100
117, 108, 140, 116
131, 123, 117, 120
126, 112, 118, 111
116, 119, 109, 112
107, 111, 118, 111
108, 127, 122, 105
105, 112, 123, 109
100, 105, 94, 128
97, 116, 96, 116
91, 104, 115, 119
110, 143, 113, 127
109, 91, 125, 96
122, 103, 118, 111
109, 99, 116, 97
118, 127, 127, 121
122, 105, 102, 103
118, 114, 99, 112
104, 102, 97, 106
110, 114, 106, 114
116, 100, 104, 102
124, 95, 118, 111
120, 101, 107, 100
102, 116, 112, 102
105, 116, 114, 112
107, 82, 108, 131
119, 118, 130, 121
110, 108, 115, 104
109, 121, 110, 112
122, 115, 119, 122
109, 120, 113, 134
113, 124, 108, 109
114, 109, 114, 114
103, 109, 112, 114
112, 104, 120, 116
99, 110, 114, 112
140, 111, 95, 97
113, 97, 106, 97
113, 106, 131, 88
109, 121, 97, 113
114, 110, 96, 120
107, 123, 124, 112
108, 121, 103, 112
104, 117, 99, 114
113, 116, 97, 124
128, 111, 119, 107
120, 115, 109, 108
122, 94, 109, 103
108, 113, 97, 108
123, 122, 115, 120
117, 109, 117, 120
105, 86, 99, 120
103, 118, 104, 104
116, 101, 97, 110
112, 109, 117, 111
122, 93, 126, 100
117, 105, 88, 124
109, 114, 126, 92
105, 129, 96, 112
111, 109, 120, 123
107, 89, 107, 123
106, 119, 107, 107
90, 117, 106, 112
113, 125, 100, 130
102, 119, 101, 116
92, 122, 118, 105
98, 104, 110, 115
116, 112, 110, 115
103, 109, 120, 122
112, 113, 117, 112
113, 112, 114, 108
103, 113, 117, 106
101, 101, 133, 117
103, 102, 102, 116
106, 105, 116, 102
129, 121, 113, 127
102, 114, 106, 113
91, 126, 97, 124
95, 122, 136, 106
112, 112, 98, 89
112, 122, 116, 104
90, 109, 128, 106
105, 107, 86, 122
117, 104, 107, 109
94, 110, 120, 126
104, 102, 106, 107
94, 110, 123, 99
118, 149, 100, 120
109, 99, 137, 112
111, 109, 127, 87
130, 103, 110, 115
111, 101, 116, 115
115, 81, 114, 112
103, 118, 123, 92
118, 131, 124, 98
115, 121, 112, 122
99, 121, 110, 117
121, 95, 104, 122
113, 124, 116, 123
94, 119, 110, 113
105, 107, 101, 112
111, 120, 109, 118
117, 113, 119, 105
115, 122, 102, 120
94, 88, 98, 114
114, 110, 119, 121
114, 113, 113, 127
106, 119, 120, 120
104, 100, 106, 114
123, 116, 122, 124
133, 99, 131, 104
113, 129, 110, 118
113, 119, 124, 97
116, 102, 102, 130
108, 99, 109, 112
102, 107, 114, 98
116, 106, 116, 117
117, 95, 100, 115
110, 106, 106, 115
125, 119, 116, 100
109, 108, 98, 91
106, 112, 124, 108
113, 94, 104, 120
111, 102, 95, 102
132, 113, 101, 113
109, 128, 109, 109
95, 120, 119, 106
111, 109, 85, 101
104, 104, 104, 116
108, 103, 103, 108
114, 123, 103, 125
119, 118, 95, 122
103, 122, 126, 120
114, 106, 109, 114
127, 123, 113, 106
102, 118, 100, 101
144, 123, 112, 104
124, 107, 115, 102
115, 99, 117, 122
97, 120, 128, 106
116, 114, 94, 107
110, 113, 104, 106
118, 106, 108, 99
115, 107, 122, 99
116, 102, 116, 110
129, 114, 112, 116
114, 106, 112, 120
119, 125, 93, 112
117, 108, 123, 119
107, 98, 94, 110
111, 112, 124, 105
112, 119, 110, 101
114, 109, 145, 113
102, 117, 111, 106
115, 98, 105, 107
118, 104, 115, 108
105, 107, 100, 102
103, 102, 107, 121
105, 110, 119, 114
110, 116, 92, 116
104, 104, 114, 89
100, 130, 106, 124
98, 114, 105, 109
114, 110, 125, 114
124, 126, 99, 108
101, 106, 116, 97
115, 98, 124, 131
127, 93, 111, 95
92, 104, 106, 112
119, 139, 102, 101
109, 99, 115, 111
107, 109, 108, 118
93, 98, 94, 112
105, 140, 128, 101
118, 101, 131, 118
115, 103, 116, 131
134, 112, 111, 116
122, 98, 111, 98
111, 121, 115, 108
92, 115, 120, 114
119, 110, 94, 104
106, 105, 103, 96
92, 127, 103, 132
82, 97, 106, 109
99, 121, 121, 101
101, 103, 99, 122
107, 123, 110, 118
122, 103, 90, 117
124, 126, 96, 117
103, 109, 125, 130
112, 111, 113, 117
115, 104, 101, 120
105, 120, 106, 123
113, 121, 121, 109
124, 105, 116, 119
112, 115, 97, 98
125, 116, 107, 110
105, 119, 110, 104
125, 105, 104, 103
103, 112, 93, 118
132, 99, 107, 97
103, 97, 114, 123
116, 116, 135, 104
117, 127, 118, 107
106, 117, 111, 120
117, 126, 104, 120
99, 129, 102, 124
112, 126, 114, 110
88, 85, 124, 113
123, 137, 97, 115
118, 84, 110, 128
115, 118, 97, 122
102, 126, 96, 104
113, 105, 131, 116
102, 110, 121, 122
123, 104, 130, 88
112, 113, 132, 108
104, 117, 89, 101
124, 128, 107, 109
102, 118, 137, 85
120, 116, 116, 110
129, 123, 104, 111
112, 86, 119, 118
99, 97, 95, 138
133, 115, 117, 105
118, 121, 99, 123
123, 114, 115, 107
104, 116, 117, 115
110, 107, 122, 108
117, 109, 104, 109
112, 101, 106, 114
114, 121, 120, 112
117, 120, 117, 134
108, 110, 111, 102
128, 116, 126, 105
127, 96, 92, 113
101, 98, 103, 134
127, 124, 136, 133
132, 118, 119, 114
122, 113, 117, 105
118, 99, 115, 125
124, 121, 109, 111
111, 113, 111, 130
131, 120, 121, 112
121, 124, 110, 134
132, 151, 129, 143
134, 139, 121, 137
130, 128, 118, 127
117, 137, 134, 120
120, 123, 132, 127
112, 139, 141, 122
127, 118, 124, 120
113, 126, 116, 134
129, 138, 136, 119
116, 124, 119, 132
115, 125, 120, 112
138, 105, 114, 92
128, 114, 121, 105
100, 118, 113, 136
94, 113, 121, 122
99, 96, 114, 115
130, 113, 108, 134
99, 112, 105, 112
103, 99, 109, 135
101, 98, 108, 114
97, 111, 105, 103
124, 116, 108, 126
106, 110, 103, 107
109, 102, 108, 102
115, 115, 108, 90
104, 85, 91, 118
114, 109, 95, 113
114, 123, 122, 115
129, 119, 109, 121
97, 110, 124, 105
89, 105, 124, 120
118, 125, 120, 129
122, 98, 102, 117
119, 124, 104, 129
120, 119, 115, 119
125, 117, 111, 106
118, 108, 110, 101
109, 122, 131, 115
113, 106, 118, 110
134, 110, 105, 109
106, 112, 107, 100
95, 104, 123, 101
99, 91, 115, 117
115, 111, 119, 114
112, 113, 106, 150
128, 88, 107, 117
101, 105, 111, 92
131, 108, 103, 133
96, 101, 107, 132
105, 114, 112, 114
103, 99, 123, 105
111, 95, 125, 102
128, 127, 107, 131
107, 115, 116, 117
116, 103, 103, 120
86, 119, 114, 120
97, 106, 98, 107
124, 120, 109, 133
116, 124, 110, 119
126, 104, 107, 109
103, 105, 105, 103
112, 117, 133, 111
129, 104, 126, 141
112, 107, 123, 130
118, 131, 107, 123
118, 153, 124, 130
124, 107, 113, 123
111, 132, 106, 129
109, 134, 124, 120
116, 114, 114, 102
108, 129, 124, 105
123, 119, 108, 115
105, 122, 94, 121
108, 98, 124, 108
110, 107, 114, 91
109, 103, 114, 119
109, 105, 124, 113
101, 116, 121, 126
100, 114, 101, 107
95, 121, 92, 119
106, 126, 114, 109
108, 110, 109, 103
105, 106, 123, 122
99, 117, 94, 115
119, 126, 94, 121
103, 109, 119, 100
110, 121, 103, 118
104, 134, 129, 103
137, 109, 89, 109
114, 124, 91, 102
94, 114, 123, 120
89, 102, 113, 123
106, 140, 103, 93
107, 127, 104, 113
126, 117, 120, 110
111, 121, 100, 99
97, 118, 115, 124
100, 114, 119, 111
127, 97, 117, 107
110, 133, 104, 100
112, 109, 101, 121
101, 101, 101, 96
102, 109, 140, 95
116, 107, 108, 115
122, 115, 99, 117
118, 103, 108, 131
106, 130, 103, 92
105, 125, 98, 127
123, 118, 115, 104
97, 115, 88, 127
102, 117, 103, 115
97, 128, 97, 103
105, 112, 144, 109
108, 108, 120, 109
107, 109, 114, 111
103, 119, 103, 103
116, 108, 116, 113
119, 111, 112, 117
94, 137, 116, 106
102, 107, 112, 121
103, 115, 114, 110
103, 112, 111, 116
113, 131, 113, 113
114, 99, 112, 123
118, 111, 119, 117
124, 108, 114, 94
152, 93, 94, 113
128, 100, 106, 126
106, 105, 117, 116
127, 120, 117, 111
127, 104, 114, 109
108, 114, 114, 126
112, 117, 105, 117
111, 114, 125, 101
116, 119, 119, 109
124, 118, 106, 137
103, 104, 114, 107
107, 113, 132, 104
97, 118, 115, 122
91, 122, 122, 116
112, 128, 105, 98
132, 103, 115, 120
112, 127, 124, 111
100, 112, 116, 97
97, 118, 129, 118
101, 115, 110, 111
119, 138, 105, 100
125, 108, 118, 102
92, 105, 117, 132
105, 116, 106, 103
122, 115, 102, 111
117, 111, 104, 131
125, 123, 106, 114
116, 95, 120, 105
109, 119, 106, 118
100, 99, 131, 126
111, 95, 109, 115
114, 99, 112, 126
125, 115, 116, 112
106, 123, 101, 114
124, 94, 123, 117
106, 92, 113, 115
94, 107, 116, 108
126, 116, 105, 120
100, 125, 133, 122
103, 111, 117, 114
124, 116, 108, 113
99, 117, 122, 114
96, 102, 114, 127
111, 122, 101, 97
108, 114, 112, 113
117, 125, 104, 105
123, 120, 107, 102
128, 123, 110, 122
119, 118, 127, 116
106, 119, 123, 116
106, 98, 123, 106
112, 110, 132, 116
115, 123, 95, 117
128, 134, 116, 119
116, 144, 157, 157
100, 138, 134, 134
121, 145, 142, 146
114, 139, 129, 130
137, 128, 134, 127
122, 123, 110, 113
114, 124, 110, 118
135, 106, 110, 112
108, 111, 142, 124
116, 136, 114, 102
107, 104, 117, 100
111, 120, 116, 111
127, 121, 124, 112
127, 98, 116, 124
118, 126, 136, 101
111, 135, 134, 104
126, 104, 128, 114
109, 126, 109, 112
115, 136, 121, 126
118, 107, 125, 124
114, 115, 120, 124
112, 123, 104, 100
108, 120, 116, 131
112, 124, 126, 125
101, 138, 120, 100
127, 129, 95, 116
112, 110, 118, 115
120, 120, 111, 129
114, 110, 111, 107
113, 117, 108, 108
119, 98, 112, 125
110, 129, 125, 114
118, 146, 118, 118
122, 100, 128, 120
105, 100, 119, 117
111, 132, 112, 125
126, 114, 121, 111
110, 121, 141, 143
125, 123, 107, 122
136, 109, 98, 123
130, 111, 107, 119
116, 113, 134, 111
109, 104, 139, 121
109, 113, 120, 126
113, 112, 111, 137
117, 119, 121, 116
115, 123, 113, 122
123, 103, 121, 106
119, 106, 133, 113
128, 102, 118, 131
125, 109, 141, 127
127, 116, 116, 108
122, 111, 128, 113
129, 132, 114, 135
116, 136, 148, 130
109, 117, 119, 136
129, 115, 130, 105
131, 111, 108, 115
125, 111, 126, 116
120, 142, 128, 112
138, 133, 113, 119
116, 126, 114, 126
124, 122, 128, 122
113, 128, 127, 116
122, 118, 130, 134
140, 122, 110, 135
121, 118, 136, 158
129, 113, 128, 145
134, 123, 123, 105
127, 126, 145, 138
130, 135, 102, 126
128, 111, 135, 137
129, 147, 122, 144
113, 123, 125, 138
137, 127, 160, 126
137, 147, 135, 139
125, 157, 132, 130
154, 143, 137, 173
132, 156, 131, 159
122, 156, 144, 169
180, 157, 175, 152
158, 177, 180, 177
186, 161, 203, 211
187, 176, 208, 188
197, 226, 219, 183
230, 204, 251, 261
235, 288, 298, 303
324, 366, 373, 455
463, 564, 648, 774
841, 974, 1051, 1160
1138, 1325, 1431, 1700
1817, 2147, 2420, 2757
3026, 3147, 3169, 3221
3049, 2795, 2600, 2457
2263, 2187, 1912, 1781
1699, 1575, 1577, 1447
1336, 1459, 1427, 1502
1603, 1612, 1630, 1696
1714, 1593, 1557, 1428
1323, 1217, 1082, 1033
933, 851, 757, 651
666, 549, 501, 422
407, 361, 346, 289
263, 239, 240, 219
218, 171, 197, 177
154, 192, 157, 177
169, 164, 147, 176
159, 154, 163, 158
164, 158, 132, 152
162, 158, 172, 153
131, 142, 137, 146
168, 128, 153, 177
154, 147, 157, 133
127, 133, 121, 131
98, 134, 144, 131
140, 144, 140, 127
128, 146, 139, 152
142, 115, 140, 119
151, 116, 126, 129
126, 134, 124, 116
129, 125, 124, 127
109, 133, 146, 141
134, 106, 109, 108
122, 148, 135, 125
128, 132, 112, 122
131, 123, 117, 115
128, 108, 126, 132
140, 140, 126, 119
130, 130, 118, 122
119, 116, 137, 124
123, 128, 125, 137
112, 136, 110, 127
129, 152, 105, 121
122, 125, 125, 118
116, 137, 120, 121
109, 137, 123, 128
138, 117, 119, 126
132, 124, 140, 110
112, 125, 116, 120
114, 121, 110, 134
120, 114, 116, 114
135, 91, 141, 113
106, 94, 114, 119
129, 135, 126, 135
140, 125, 124, 113
111, 126, 113, 116
120, 106, 105, 124
118, 116, 114, 128
109, 110, 103, 121
126, 136, 132, 123
129, 115, 126, 112
105, 111, 116, 109
101, 110, 115, 116
124, 115, 128, 105
147, 115, 118, 120
122, 134, 120, 126
123, 141, 112, 116
122, 96, 122, 121
123, 108, 111, 138
116, 109, 110, 117
114, 114, 139, 121
108, 124, 124, 100
115, 126, 109, 115
133, 126, 104, 129
114, 138, 114, 105
91, 107, 127, 130
122, 118, 101, 131
119, 111, 118, 104
141, 120, 121, 118
113, 99, 108, 113
116, 118, 117, 123
114, 119, 118, 102
114, 115, 97, 123
120, 124, 131, 120
112, 119, 111, 104
134, 114, 111, 112
119, 97, 122, 126
138, 98, 123, 107
102, 124, 112, 125
108, 98, 119, 119
132, 125, 124, 107
122, 131, 115, 128
123, 97, 127, 118
118, 113, 140, 133
93, 127, 134, 120
117, 137, 123, 118
116, 109, 104, 105
123, 133, 125, 130
106, 113, 107, 97
111, 111, 121, 124
123, 119, 97, 124
120, 131, 122, 120
112, 101, 96, 121
103, 121, 118, 116
104, 101, 111, 101
117, 138, 115, 101
107, 117, 113, 111
115, 111, 127, 86
107, 109, 106, 116
111, 101, 131, 108
109, 114, 115, 116
120, 123, 117, 79
107, 124, 138, 126
119, 101, 136, 112
106, 116, 97, 124
120, 117, 122, 127
100, 114, 114, 116
118, 129, 121, 137
126, 110, 127, 129
118
*END

*EOF
