*TYPE		=  Raw
*CLASS		=  ASCII CLASS
*SAMPLE		=   
*COMMENT	=   
*FNAME		=  3-2_2-Theta_Omega.asc
*DATE		=  11-Dec-25 16:20

*GROUP_COUNT	=  1
*GONIO		=  SmartLab(In-plane), 0.000000
*ATTACHMENT	=  Z-Phi Stage
*ASC		=  0, 0, 0.000000, 0.000000
*I_MONOCHRO	=  Soller_slit_5.0deg, 0.000000
*FILTER		=  None
*C_MONOCHRO	=  None, 0.000000
*SLIT_NAME	=  0, Incident slit
*SLIT_NAME	=  1, Receiving slit # 1
*SLIT_NAME	=  2, Receiving slit # 2
*COUNTER	=  SC-70, 0
*POS_FORMAT	=  0
*SCAN_AXIS	=  2Theta/Omega
*MEAS_MODE	=  Continuous Scanning
*TARGET		=  29
*XRAY_CHAR	=  K-ALPHA
*WAVE_LENGTH1	=  1.54059
*WAVE_LENGTH2	=  1.54441
*THICKNESS	=  0, 0.000000
*MU		=  0, 0.000000
*SCAN_MODE	=  2Theta/Omega
*SPEED_DIM	=  sec./step
*XUNIT		=  deg.
*YUNIT		=  counts
*SCALE_MODE	=  1
*REP_COUNT	=  0
*SE_COUNT	=  0
*STD_MATERIAL	=  Unknown, Unknown, 0.000000, 0.000000, 0.000000, 0.000000, 0.000000, 0.000000
*LATT_CONS	=  0, Unknown, Unknown, 0.000000, 0.000000, 0.000000, 0.000000, 0.000000, 0.000000
*SEC_COUNT	=  1
*TSPEC_SIZE	=  0
*EXTRA_SIZE	=  0
*MEMO		=   

*BEGIN
*GROUP		=  0
*START		=  20
*STOP		=  80
*STEP		=  0.01
*OFFSET		=  0.000000
*SPEED		=  0.05
*SLIT_SPEC	=  0, 1.000mm, 1, 0.000000
*SLIT_SPEC	=  1, 1.000mm, 1, 0.000000
*SLIT_SPEC	=  2, 1.000mm, 1, 0.000000
*KV		=  40
*MA		=  100
*LOW		=  0.000000
*HIGH		=  0.000000
*CTEMPER	=  0, 0.000000
*CTEMPER	=  1, 0.000000
*CTEMPER	=  2, 0.000000
*PAREX		=  0, 0.000000
*PAREX		=  1, 0.000000
*PAREX		=  2, 0.000000
*PAREX		=  3, 0.000000
*PAREX		=  4, 0.000000
*PAREX		=  5, 0.000000
*PAREX		=  6, 0.000000
*PAREX		=  7, 0.000000
*PAREX		=  8, 0.000000
*PAREX		=  9, 0.000000
*PAREX		=  10, 0.000000
*PAREX		=  11, 0.000000
*PAREX		=  12, 0.000000
*PAREX		=  13, 0.000000
*PAREX		=  14, 0.000000
*PAREX		=  15, 0.000000
*FULL_SCALE	=  88992
*INDEX		=  0, 0, 0
*COUNT		=  6001
111, 106, 112, 108
100, 110, 116, 82
111, 101, 104, 82
104, 106, 110, 116
114, 118, 114, 113
84, 103, 105, 133
114, 117, 105, 97
109, 120, 106, 105
110, 92, 103, 104
100, 108, 94, 127
115, 96, 95, 106
110, 94, 112, 118
116, 107, 96, 106
96, 99, 97, 118
107, 110, 114, 96
102, 114, 110, 126
107, 118, 114, 113
93, 119, 87, 89
113, 114, 91, 102
88, 105, 119, 90
101, 116, 101, 112
123, 87, 88, 99
112, 93, 110, 115
104, 116, 112, 101
100, 105, 112, 120
92, 86, 118, 89
103, 110, 112, 107
97, 97, 128, 100
115, 120, 106, 116
119, 107, 109, 106
101, 111, 95, 108
116, 105, 122, 116
99, 111, 113, 132
136, 114, 119, 109
101, 105, 102, 133
109, 121, 85, 101
104, 101, 90, 98
113, 94, 129, 122
113, 105, 108, 107
108, 94, 104, 104
113, 124, 96, 110
98, 108, 98, 113
96, 108, 116, 112
103, 102, 104, 119
105, 90, 89, 106
109, 135, 101, 110
120, 131, 110, 107
100, 112, 104, 106
105, 108, 94, 108
113, 102, 116, 101
112, 115, 95, 94
114, 121, 111, 104
120, 112, 116, 124
92, 128, 122, 92
103, 98, 108, 107
102, 104, 104, 118
110, 108, 125, 80
111, 102, 120, 111
116, 108, 108, 106
110, 99, 107, 122
111, 116, 121, 105
97, 114, 119, 110
116, 114, 106, 102
92, 93, 108, 97
85, 133, 117, 108
101, 113, 106, 111
127, 84, 104, 101
122, 122, 124, 94
118, 104, 106, 118
104, 114, 115, 89
102, 110, 105, 97
103, 111, 124, 123
101, 106, 111, 114
100, 109, 88, 112
107, 101, 93, 113
106, 124, 107, 94
119, 97, 110, 93
109, 111, 114, 106
107, 113, 108, 101
114, 100, 90, 114
117, 100, 88, 99
108, 110, 121, 107
112, 116, 115, 122
93, 121, 102, 114
119, 115, 101, 113
121, 124, 106, 127
127, 101, 101, 104
105, 109, 99, 92
105, 109, 87, 106
109, 103, 115, 122
117, 111, 121, 97
90, 104, 122, 97
120, 94, 108, 113
105, 121, 98, 95
97, 117, 111, 107
95, 115, 99, 119
109, 117, 100, 120
89, 128, 108, 102
106, 118, 120, 108
108, 92, 99, 120
113, 114, 103, 104
107, 90, 115, 99
103, 94, 117, 120
94, 129, 98, 105
108, 107, 103, 134
104, 120, 112, 105
108, 105, 95, 112
80, 109, 124, 94
113, 116, 99, 90
129, 95, 131, 100
116, 97, 111, 106
101, 110, 111, 106
105, 106, 96, 101
125, 103, 122, 100
98, 124, 101, 97
98, 125, 113, 117
112, 114, 114, 116
117, 131, 118, 113
93, 103, 82, 119
107, 99, 109, 109
116, 98, 104, 139
119, 104, 99, 98
97, 93, 120, 100
108, 93, 102, 88
117, 109, 92, 114
90, 111, 103, 91
113, 114, 98, 110
127, 101, 93, 102
131, 99, 109, 100
113, 109, 90, 124
109, 101, 100, 124
102, 116, 127, 96
123, 89, 111, 105
123, 104, 95, 121
87, 113, 95, 120
94, 118, 106, 111
112, 107, 120, 113
120, 91, 122, 112
92, 102, 109, 107
113, 93, 101, 85
111, 97, 124, 95
115, 107, 127, 104
101, 108, 102, 103
117, 113, 95, 114
83, 96, 98, 116
106, 119, 116, 111
136, 109, 104, 109
90, 113, 110, 117
136, 97, 106, 132
104, 121, 90, 101
109, 108, 113, 115
110, 100, 109, 106
97, 112, 100, 108
83, 101, 107, 94
126, 109, 126, 117
114, 101, 109, 106
110, 98, 103, 114
113, 119, 122, 101
108, 96, 93, 91
115, 129, 104, 97
94, 99, 125, 105
101, 92, 103, 91
101, 88, 118, 111
122, 98, 97, 97
117, 128, 108, 99
117, 110, 98, 109
112, 106, 93, 109
109, 112, 96, 121
111, 106, 128, 99
114, 110, 95, 90
107, 128, 82, 123
104, 123, 112, 111
106, 128, 128, 72
108, 109, 114, 114
119, 95, 104, 104
96, 115, 112, 113
102, 108, 113, 96
118, 114, 103, 109
99, 103, 119, 107
97, 96, 121, 123
115, 112, 110, 103
143, 122, 124, 85
110, 100, 99, 140
99, 128, 130, 117
116, 95, 123, 128
95, 111, 107, 109
109, 123, 97, 103
114, 106, 125, 109
97, 99, 121, 106
101, 108, 108, 113
119, 103, 120, 112
101, 131, 122, 119
110, 93, 111, 104
101, 112, 110, 108
102, 112, 102, 110
117, 120, 113, 124
108, 109, 125, 98
118, 112, 98, 94
106, 107, 130, 98
123, 83, 126, 102
103, 122, 103, 106
104, 118, 120, 109
119, 111, 84, 115
135, 115, 107, 115
97, 114, 117, 126
110, 119, 106, 104
111, 98, 108, 114
120, 96, 101, 91
120, 114, 115, 100
109, 102, 126, 103
104, 97, 114, 106
103, 111, 105, 104
114, 102, 115, 118
93, 106, 109, 122
123, 115, 102, 114
101, 134, 101, 121
117, 119, 106, 115
105, 105, 90, 102
103, 128, 105, 121
93, 126, 103, 130
124, 101, 113, 118
119, 111, 120, 114
115, 105, 113, 108
103, 128, 119, 111
112, 115, 114, 124
116, 98, 106, 114
106, 106, 98, 124
114, 133, 103, 121
113, 105, 105, 124
115, 97, 102, 98
113, 106, 130, 106
101, 99, 109, 110
133, 108, 111, 86
100, 120, 98, 95
115, 119, 121, 117
118, 126, 109, 96
103, 114, 125, 112
112, 107, 107, 120
113, 141, 128, 95
105, 106, 122, 106
116, 117, 115, 110
105, 130, 130, 84
117, 105, 113, 97
104, 114, 133, 118
101, 106, 97, 109
114, 124, 120, 107
108, 124, 103, 100
118, 116, 109, 108
112, 105, 113, 114
109, 126, 98, 121
97, 88, 110, 98
107, 143, 123, 116
108, 101, 96, 114
121, 113, 107, 125
108, 105, 94, 104
114, 123, 106, 120
127, 114, 106, 97
103, 95, 113, 88
91, 96, 94, 128
109, 89, 129, 100
103, 121, 102, 132
107, 105, 106, 117
123, 111, 114, 132
113, 132, 120, 114
93, 113, 111, 109
94, 104, 100, 101
91, 124, 116, 89
120, 100, 118, 133
124, 109, 101, 124
122, 119, 101, 118
129, 113, 110, 110
110, 111, 128, 111
96, 126, 133, 111
104, 116, 125, 128
109, 122, 102, 122
116, 106, 98, 124
108, 94, 111, 112
118, 110, 114, 117
131, 122, 97, 115
118, 93, 114, 130
112, 112, 124, 105
103, 111, 104, 90
123, 101, 122, 120
116, 113, 103, 121
103, 80, 119, 123
114, 102, 109, 102
113, 111, 121, 129
113, 104, 98, 117
116, 119, 115, 121
106, 103, 116, 110
128, 98, 107, 99
124, 119, 104, 108
108, 116, 113, 96
105, 130, 98, 100
116, 94, 101, 104
110, 100, 101, 101
109, 117, 123, 112
117, 126, 124, 94
119, 100, 120, 108
121, 126, 115, 128
102, 126, 94, 115
119, 106, 121, 126
86, 103, 122, 106
121, 112, 95, 107
116, 95, 105, 102
109, 118, 122, 97
117, 107, 120, 123
109, 116, 127, 115
119, 122, 96, 101
111, 110, 124, 114
114, 132, 107, 122
105, 133, 122, 109
108, 117, 116, 118
124, 126, 117, 108
115, 110, 116, 131
97, 115, 124, 109
105, 122, 105, 101
107, 95, 135, 103
100, 97, 116, 130
132, 126, 102, 127
134, 135, 141, 113
96, 107, 148, 95
101, 114, 104, 116
111, 106, 99, 114
109, 116, 99, 100
92, 108, 112, 133
108, 125, 98, 108
111, 96, 101, 102
104, 123, 95, 112
99, 102, 107, 101
118, 114, 106, 126
124, 121, 113, 92
132, 119, 135, 113
118, 108, 106, 98
132, 119, 104, 109
125, 136, 110, 108
109, 118, 110, 105
116, 132, 125, 107
95, 113, 108, 116
104, 100, 122, 109
97, 108, 126, 120
104, 132, 96, 126
97, 108, 131, 120
114, 124, 123, 126
128, 120, 114, 121
125, 153, 97, 124
132, 126, 111, 113
118, 118, 113, 123
115, 93, 119, 96
115, 107, 106, 105
111, 118, 98, 113
83, 124, 112, 94
78, 95, 119, 106
127, 101, 109, 102
124, 112, 93, 110
123, 137, 127, 122
105, 135, 89, 106
103, 124, 101, 111
118, 108, 98, 122
111, 108, 109, 106
124, 113, 89, 121
114, 102, 136, 112
110, 119, 102, 111
106, 109, 89, 118
130, 107, 103, 111
122, 93, 110, 87
98, 113, 125, 113
124, 103, 127, 114
126, 137, 119, 102
100, 104, 115, 120
113, 99, 118, 122
115, 114, 109, 121
119, 122, 105, 123
107, 112, 127, 109
108, 111, 104, 104
129, 105, 100, 106
117, 120, 108, 120
104, 102, 107, 132
109, 111, 117, 90
108, 122, 93, 113
108, 99, 113, 112
104, 119, 109, 109
118, 98, 105, 113
108, 97, 130, 116
107, 128, 116, 127
105, 124, 102, 105
106, 118, 109, 110
107, 105, 106, 149
114, 108, 115, 113
110, 111, 112, 131
131, 105, 110, 110
118, 106, 118, 103
119, 117, 97, 121
128, 129, 110, 116
105, 127, 96, 112
118, 131, 116, 131
97, 125, 112, 115
121, 117, 103, 95
139, 117, 105, 119
105, 111, 121, 107
116, 124, 141, 138
103, 119, 131, 111
130, 103, 118, 115
128, 116, 117, 94
112, 96, 114, 119
108, 105, 103, 115
112, 116, 117, 107
109, 105, 110, 119
107, 112, 137, 121
106, 117, 109, 143
107, 131, 103, 111
99, 99, 115, 101
108, 99, 100, 101
123, 102, 118, 96
119, 108, 112, 120
111, 117, 116, 128
140, 110, 119, 89
109, 108, 109, 118
117, 110, 100, 119
137, 113, 109, 101
114, 141, 100, 112
116, 105, 99, 118
115, 116, 115, 97
126, 105, 106, 120
117, 108, 94, 129
113, 129, 118, 125
119, 107, 101, 145
105, 122, 116, 101
123, 109, 116, 122
115, 121, 99, 112
125, 102, 114, 131
120, 114, 121, 136
135, 105, 98, 119
143, 102, 133, 99
117, 114, 111, 106
104, 147, 106, 123
110, 116, 118, 107
107, 137, 107, 121
106, 122, 109, 115
85, 121, 103, 103
114, 103, 126, 114
117, 120, 134, 98
105, 124, 124, 134
114, 121, 137, 123
119, 123, 115, 133
123, 130, 116, 93
121, 131, 122, 117
121, 117, 131, 140
116, 108, 112, 120
119, 101, 119, 125
129, 95, 98, 122
108, 131, 111, 122
116, 109, 118, 147
122, 128, 119, 122
111, 99, 122, 92
123, 123, 114, 108
106, 123, 124, 91
102, 111, 118, 109
127, 132, 140, 119
116, 121, 101, 101
128, 95, 122, 114
131, 119, 100, 120
116, 111, 111, 110
105, 113, 122, 103
122, 113, 117, 123
132, 118, 121, 108
131, 106, 101, 110
114, 109, 104, 101
115, 130, 102, 128
130, 113, 121, 129
127, 105, 103, 132
114, 117, 128, 110
114, 126, 129, 111
119, 120, 124, 123
144, 132, 114, 107
102, 115, 115, 121
120, 107, 125, 125
135, 119, 112, 125
119, 124, 119, 116
125, 111, 117, 124
97, 113, 98, 125
108, 113, 101, 110
115, 131, 108, 117
144, 108, 126, 115
127, 112, 110, 106
114, 121, 134, 129
143, 128, 106, 114
126, 140, 118, 122
118, 135, 140, 128
131, 143, 123, 143
114, 148, 142, 113
135, 138, 141, 124
133, 113, 109, 118
120, 129, 120, 118
129, 114, 121, 118
112, 102, 123, 99
100, 114, 113, 117
121, 123, 125, 103
124, 107, 123, 137
119, 140, 120, 141
99, 119, 116, 119
117, 100, 101, 103
102, 122, 138, 130
112, 121, 116, 114
119, 128, 132, 111
116, 129, 116, 140
116, 115, 112, 116
96, 112, 118, 113
107, 119, 118, 127
125, 114, 127, 135
118, 110, 110, 111
128, 92, 107, 121
112, 122, 132, 123
123, 126, 110, 117
118, 122, 102, 98
131, 115, 118, 124
123, 114, 119, 118
104, 118, 125, 104
111, 113, 136, 138
123, 127, 130, 121
114, 134, 132, 115
102, 109, 124, 113
119, 102, 132, 127
104, 123, 115, 139
111, 115, 118, 108
120, 143, 116, 124
138, 137, 109, 123
125, 135, 136, 109
125, 100, 126, 127
134, 119, 111, 104
127, 117, 106, 108
106, 125, 102, 133
121, 131, 132, 136
125, 115, 129, 112
129, 103, 130, 122
146, 114, 142, 138
135, 142, 139, 127
123, 125, 130, 134
147, 144, 122, 145
127, 157, 132, 131
119, 110, 133, 133
141, 126, 121, 111
138, 127, 132, 137
112, 112, 109, 132
108, 134, 119, 138
104, 135, 131, 133
117, 128, 125, 124
130, 113, 139, 109
154, 155, 158, 132
146, 123, 143, 125
157, 169, 141, 143
164, 140, 152, 158
159, 148, 152, 136
153, 142, 146, 141
128, 133, 123, 126
129, 135, 148, 139
131, 147, 140, 108
139, 125, 125, 150
119, 140, 139, 122
144, 116, 114, 135
126, 126, 157, 119
134, 140, 155, 112
99, 132, 142, 126
131, 145, 131, 121
142, 138, 147, 125
137, 117, 148, 139
151, 126, 131, 133
133, 130, 140, 144
138, 153, 143, 141
155, 142, 142, 132
134, 147, 112, 143
134, 134, 119, 133
155, 140, 130, 169
141, 143, 117, 134
109, 146, 145, 139
136, 136, 139, 147
137, 121, 125, 154
138, 135, 137, 129
143, 126, 126, 135
129, 146, 144, 128
154, 150, 158, 143
143, 142, 134, 133
132, 116, 141, 155
134, 159, 150, 142
129, 129, 153, 134
127, 131, 135, 158
145, 151, 140, 148
129, 149, 161, 191
181, 168, 162, 169
163, 183, 177, 178
203, 179, 190, 199
218, 201, 207, 210
208, 230, 246, 245
268, 333, 340, 370
401, 529, 637, 782
920, 1165, 1375, 1593
1802, 1981, 2142, 2285
2383, 2491, 2625, 2777
2994, 3244, 3318, 3472
3648, 3708, 3675, 3668
3679, 3525, 3446, 3411
3277, 3266, 3136, 2858
2660, 2551, 2339, 2189
2036, 1827, 1622, 1506
1404, 1185, 1099, 985
912, 829, 720, 611
609, 527, 484, 437
382, 381, 338, 362
340, 332, 306, 333
310, 320, 318, 303
262, 245, 260, 266
270, 244, 246, 264
231, 242, 217, 196
192, 212, 203, 199
188, 175, 182, 166
182, 187, 168, 158
144, 138, 170, 183
165, 163, 160, 137
145, 146, 151, 159
149, 126, 125, 135
154, 168, 119, 139
143, 140, 145, 136
138, 120, 143, 124
159, 135, 143, 130
131, 149, 112, 137
121, 124, 112, 141
137, 150, 114, 127
122, 126, 134, 136
129, 158, 121, 134
126, 122, 128, 117
126, 127, 151, 132
131, 122, 119, 133
117, 136, 145, 144
118, 141, 127, 121
122, 119, 151, 130
142, 137, 123, 110
126, 134, 140, 120
129, 128, 123, 130
116, 132, 124, 127
115, 130, 131, 134
130, 130, 127, 138
145, 138, 145, 123
130, 123, 125, 109
136, 135, 112, 145
141, 103, 130, 124
113, 129, 116, 136
126, 131, 124, 116
130, 152, 123, 99
119, 117, 115, 129
137, 127, 133, 123
133, 118, 127, 132
120, 123, 134, 141
133, 141, 105, 134
137, 112, 122, 128
133, 140, 146, 119
133, 133, 129, 126
144, 141, 134, 142
124, 103, 137, 155
142, 138, 126, 157
126, 97, 128, 149
122, 137, 121, 132
138, 134, 135, 147
150, 141, 128, 108
132, 149, 157, 163
143, 128, 141, 146
131, 137, 134, 146
142, 150, 156, 156
144, 145, 150, 139
160, 158, 145, 155
151, 153, 150, 163
137, 149, 144, 140
155, 148, 169, 139
205, 136, 164, 149
156, 152, 191, 173
182, 167, 166, 175
170, 186, 199, 196
181, 196, 194, 208
178, 227, 218, 201
245, 248, 223, 232
252, 233, 250, 254
249, 255, 252, 287
276, 263, 260, 295
298, 303, 300, 291
309, 302, 269, 260
276, 267, 285, 295
271, 244, 270, 250
253, 282, 262, 255
236, 234, 263, 223
242, 217, 238, 222
214, 215, 216, 198
200, 204, 222, 194
209, 179, 193, 192
169, 180, 172, 192
167, 186, 176, 150
175, 151, 147, 181
170, 167, 171, 169
166, 161, 155, 184
140, 152, 180, 162
147, 148, 161, 149
156, 165, 154, 155
140, 145, 148, 149
148, 155, 152, 137
136, 140, 156, 157
149, 159, 113, 139
151, 123, 137, 126
134, 141, 147, 110
161, 133, 126, 132
127, 136, 132, 145
115, 133, 131, 132
115, 138, 140, 127
112, 133, 141, 144
146, 125, 126, 118
134, 119, 107, 116
129, 127, 135, 137
117, 121, 117, 137
116, 126, 128, 134
131, 127, 123, 131
122, 141, 112, 105
133, 131, 138, 141
120, 138, 102, 144
141, 135, 104, 129
118, 120, 115, 125
108, 124, 140, 130
111, 125, 144, 130
130, 130, 126, 119
134, 123, 138, 122
143, 110, 127, 142
113, 102, 128, 113
141, 120, 119, 134
138, 114, 115, 99
128, 137, 132, 128
122, 118, 115, 115
116, 104, 132, 125
106, 113, 113, 131
137, 120, 127, 119
129, 114, 111, 118
110, 119, 130, 119
122, 115, 104, 121
117, 136, 119, 123
105, 132, 119, 117
120, 108, 125, 141
131, 117, 131, 107
112, 118, 150, 97
126, 120, 114, 130
119, 110, 126, 119
141, 123, 120, 126
122, 116, 113, 122
126, 104, 141, 105
105, 143, 115, 103
104, 134, 135, 120
125, 141, 114, 133
119, 112, 121, 121
112, 114, 118, 102
121, 120, 123, 126
139, 131, 110, 116
126, 123, 117, 128
115, 120, 105, 131
112, 130, 123, 127
125, 103, 144, 110
122, 136, 111, 128
119, 129, 133, 132
116, 124, 100, 125
124, 113, 127, 115
135, 111, 136, 119
114, 116, 96, 131
125, 135, 109, 138
104, 140, 127, 113
136, 112, 131, 111
114, 126, 133, 113
131, 115, 131, 102
109, 113, 114, 139
108, 124, 110, 117
123, 111, 135, 113
117, 119, 100, 127
134, 120, 125, 92
117, 95, 119, 117
111, 110, 97, 118
137, 127, 123, 136
122, 123, 147, 126
123, 126, 117, 109
137, 107, 101, 104
119, 125, 121, 131
131, 126, 121, 126
93, 125, 120, 125
128, 124, 109, 123
124, 114, 135, 131
111, 118, 109, 114
117, 125, 113, 129
110, 120, 119, 127
133, 120, 121, 109
129, 137, 136, 135
100, 127, 131, 126
138, 121, 118, 131
119, 125, 109, 139
133, 131, 128, 126
114, 107, 130, 113
117, 145, 136, 113
137, 121, 116, 116
102, 119, 119, 104
113, 143, 121, 97
137, 97, 136, 104
143, 131, 121, 134
128, 127, 114, 125
106, 143, 107, 108
119, 120, 145, 127
113, 126, 117, 123
144, 126, 126, 130
112, 106, 131, 124
126, 127, 131, 120
116, 122, 133, 128
123, 136, 106, 112
125, 126, 130, 127
113, 120, 124, 106
123, 115, 113, 120
117, 115, 119, 113
134, 148, 112, 120
128, 122, 137, 130
135, 140, 107, 105
102, 132, 107, 133
133, 131, 103, 144
119, 120, 147, 138
122, 113, 117, 116
141, 118, 135, 128
134, 120, 115, 127
108, 118, 110, 113
131, 135, 119, 115
135, 119, 121, 111
122, 130, 123, 118
132, 115, 127, 118
118, 122, 95, 124
128, 119, 124, 111
122, 131, 136, 136
117, 94, 124, 110
140, 122, 124, 114
122, 117, 124, 109
118, 124, 140, 128
123, 139, 104, 120
121, 122, 128, 114
124, 123, 131, 108
116, 118, 108, 120
106, 130, 96, 122
138, 134, 128, 142
123, 118, 138, 133
133, 123, 132, 98
117, 122, 112, 121
131, 130, 119, 110
127, 110, 126, 111
127, 104, 129, 122
134, 125, 125, 119
118, 110, 123, 118
114, 146, 122, 122
99, 120, 136, 137
118, 116, 142, 118
111, 126, 129, 119
113, 136, 131, 132
97, 120, 107, 119
110, 108, 116, 117
121, 142, 113, 133
126, 116, 137, 120
127, 111, 111, 127
128, 121, 113, 122
129, 142, 122, 104
114, 112, 125, 137
115, 128, 117, 128
106, 135, 112, 131
105, 123, 114, 125
144, 129, 133, 130
131, 120, 137, 117
128, 120, 140, 144
122, 119, 117, 103
135, 118, 116, 112
117, 133, 124, 119
113, 119, 151, 116
104, 136, 111, 126
121, 130, 130, 120
108, 135, 129, 133
120, 131, 122, 125
111, 111, 114, 134
119, 115, 94, 119
129, 127, 107, 134
110, 130, 117, 121
114, 98, 121, 122
137, 133, 113, 113
120, 133, 129, 127
129, 111, 118, 123
119, 128, 122, 120
107, 113, 127, 122
133, 111, 123, 116
123, 125, 110, 120
145, 113, 123, 126
101, 129, 128, 135
124, 122, 113, 119
125, 123, 112, 113
120, 104, 102, 118
123, 128, 125, 119
124, 107, 127, 115
119, 114, 111, 124
120, 116, 136, 110
134, 122, 114, 129
143, 127, 137, 117
122, 113, 120, 122
112, 120, 105, 130
119, 138, 112, 135
102, 121, 112, 126
117, 118, 128, 123
142, 117, 106, 111
104, 119, 126, 143
129, 149, 120, 100
117, 120, 108, 125
118, 131, 123, 117
129, 130, 116, 132
115, 125, 127, 134
123, 120, 123, 108
117, 120, 143, 118
107, 126, 115, 121
96, 136, 108, 144
119, 110, 102, 120
117, 121, 135, 120
118, 138, 105, 129
120, 133, 114, 110
112, 119, 115, 131
115, 121, 125, 122
106, 135, 125, 150
136, 136, 125, 139
118, 138, 110, 136
138, 111, 130, 122
112, 135, 116, 109
126, 116, 130, 114
105, 116, 135, 107
108, 115, 124, 129
110, 124, 114, 125
125, 113, 123, 109
120, 105, 130, 125
114, 149, 131, 119
121, 137, 124, 115
106, 133, 118, 123
98, 136, 121, 121
113, 125, 119, 108
126, 141, 124, 130
131, 122, 133, 114
99, 122, 112, 115
117, 121, 114, 122
128, 131, 140, 120
117, 135, 102, 126
127, 136, 141, 138
127, 126, 130, 131
136, 139, 111, 122
131, 116, 106, 125
133, 127, 143, 110
128, 119, 120, 134
114, 123, 135, 139
109, 121, 115, 129
120, 145, 107, 130
117, 118, 111, 126
93, 125, 121, 114
121, 97, 132, 97
130, 131, 139, 113
124, 124, 125, 133
110, 102, 123, 126
123, 124, 115, 113
125, 133, 134, 108
116, 127, 123, 138
130, 124, 126, 108
139, 120, 130, 140
117, 122, 126, 116
123, 122, 123, 137
122, 109, 126, 134
126, 131, 126, 103
138, 116, 118, 128
121, 116, 117, 107
128, 111, 148, 145
108, 118, 127, 116
101, 115, 119, 125
122, 109, 124, 139
116, 114, 117, 97
126, 110, 111, 112
117, 116, 126, 116
123, 127, 123, 128
105, 122, 106, 125
134, 119, 128, 112
131, 133, 115, 131
109, 145, 121, 126
139, 115, 122, 127
116, 117, 125, 105
124, 127, 115, 114
119, 127, 129, 108
121, 129, 107, 105
104, 117, 119, 121
108, 123, 108, 107
121, 112, 104, 108
127, 108, 124, 103
114, 120, 128, 125
144, 113, 137, 130
98, 117, 98, 109
111, 113, 117, 124
125, 115, 129, 142
133, 118, 128, 125
128, 139, 111, 118
116, 120, 110, 125
129, 143, 137, 117
105, 125, 132, 130
127, 114, 125, 123
118, 117, 128, 98
124, 125, 126, 121
112, 127, 111, 102
109, 106, 135, 144
113, 120, 106, 127
137, 108, 111, 127
131, 125, 129, 129
130, 120, 112, 110
101, 138, 117, 118
115, 126, 122, 125
134, 110, 135, 140
125, 124, 119, 119
127, 103, 105, 110
128, 127, 121, 140
121, 134, 111, 113
126, 142, 141, 151
142, 124, 127, 128
132, 136, 112, 120
130, 109, 151, 112
114, 113, 126, 108
137, 111, 149, 130
148, 143, 117, 119
133, 131, 136, 115
111, 123, 125, 131
128, 113, 137, 110
139, 114, 121, 108
114, 130, 122, 116
125, 126, 138, 131
125, 142, 114, 110
123, 114, 143, 107
116, 128, 114, 105
113, 100, 104, 143
138, 110, 118, 122
107, 116, 134, 137
117, 136, 129, 125
110, 124, 112, 109
116, 121, 127, 104
112, 116, 129, 103
115, 120, 110, 124
104, 105, 112, 126
137, 111, 122, 124
145, 119, 134, 116
111, 132, 130, 107
124, 131, 93, 118
120, 134, 104, 145
121, 118, 122, 133
117, 112, 96, 114
127, 116, 111, 121
97, 113, 126, 122
118, 122, 114, 127
109, 122, 120, 107
122, 108, 121, 106
94, 126, 127, 120
135, 107, 131, 122
132, 121, 125, 110
116, 120, 131, 115
115, 129, 106, 117
132, 112, 124, 130
115, 123, 103, 111
116, 115, 126, 126
127, 121, 128, 106
124, 130, 122, 106
124, 136, 112, 135
105, 107, 106, 119
114, 108, 131, 135
116, 121, 107, 119
116, 114, 120, 112
124, 118, 118, 148
107, 115, 141, 114
116, 120, 123, 124
120, 116, 115, 135
139, 122, 118, 119
102, 110, 123, 136
117, 120, 115, 111
138, 103, 128, 138
122, 122, 130, 118
90, 133, 115, 123
124, 109, 122, 121
120, 120, 113, 135
118, 126, 125, 131
106, 119, 107, 106
111, 116, 93, 106
105, 124, 99, 120
100, 100, 115, 111
143, 121, 126, 128
118, 141, 114, 122
131, 113, 129, 98
122, 119, 120, 131
112, 109, 120, 117
123, 134, 124, 114
124, 110, 120, 123
128, 128, 141, 140
129, 143, 137, 142
103, 127, 117, 122
133, 111, 113, 114
122, 122, 102, 118
130, 107, 126, 133
115, 120, 130, 105
116, 134, 125, 122
130, 135, 126, 129
130, 120, 116, 112
121, 123, 137, 126
113, 127, 126, 118
139, 139, 130, 126
134, 144, 132, 149
120, 140, 139, 133
158, 125, 129, 116
119, 119, 145, 145
143, 124, 152, 122
129, 127, 136, 136
121, 138, 119, 122
134, 145, 155, 139
131, 142, 128, 138
136, 138, 138, 117
145, 118, 118, 122
136, 137, 141, 137
132, 118, 150, 127
136, 136, 115, 136
105, 128, 117, 134
132, 120, 137, 115
132, 153, 112, 120
120, 122, 132, 141
133, 116, 122, 130
119, 132, 135, 127
124, 125, 121, 103
106, 100, 123, 100
128, 104, 125, 109
125, 100, 110, 122
137, 107, 117, 121
111, 112, 117, 128
103, 116, 128, 114
104, 119, 142, 115
121, 125, 104, 131
110, 126, 107, 105
115, 141, 96, 133
134, 127, 109, 114
113, 114, 112, 125
121, 132, 119, 111
124, 113, 122, 139
113, 140, 100, 124
122, 106, 121, 131
131, 120, 117, 127
106, 106, 133, 120
109, 131, 104, 128
114, 136, 123, 122
132, 114, 117, 123
120, 121, 126, 110
126, 105, 112, 146
105, 126, 128, 116
112, 126, 142, 127
137, 125, 117, 108
128, 134, 94, 112
116, 122, 112, 118
138, 123, 125, 121
109, 110, 128, 141
116, 123, 137, 125
111, 127, 126, 92
104, 110, 113, 103
116, 129, 125, 100
94, 122, 111, 122
134, 116, 115, 107
102, 127, 122, 139
119, 126, 120, 126
129, 129, 103, 116
131, 131, 128, 132
144, 133, 122, 122
128, 119, 126, 112
127, 124, 121, 117
111, 137, 111, 108
141, 139, 121, 137
130, 134, 117, 129
124, 112, 123, 114
115, 136, 113, 116
127, 125, 112, 122
132, 116, 128, 130
133, 123, 127, 122
104, 124, 120, 121
126, 113, 117, 108
94, 102, 132, 121
106, 120, 115, 120
115, 114, 108, 131
134, 124, 147, 117
134, 128, 122, 120
120, 107, 114, 120
106, 118, 120, 123
123, 118, 124, 122
112, 128, 107, 115
118, 120, 112, 120
118, 127, 142, 116
108, 138, 126, 120
115, 121, 105, 135
113, 111, 108, 108
115, 115, 117, 143
123, 115, 118, 119
130, 129, 134, 89
124, 115, 121, 146
130, 122, 124, 111
117, 123, 114, 120
116, 112, 109, 124
131, 113, 122, 114
108, 129, 112, 122
126, 119, 110, 131
124, 135, 112, 127
128, 129, 125, 130
113, 133, 130, 113
132, 121, 103, 126
129, 111, 116, 116
133, 133, 107, 125
116, 123, 124, 130
119, 124, 123, 109
116, 109, 122, 111
132, 133, 120, 107
120, 133, 119, 122
97, 151, 124, 130
98, 124, 124, 126
114, 120, 134, 121
135, 115, 124, 119
125, 102, 115, 117
105, 135, 144, 133
129, 139, 130, 115
121, 109, 115, 131
123, 129, 122, 113
130, 102, 129, 118
128, 112, 137, 103
112, 120, 130, 106
118, 124, 113, 124
129, 145, 128, 112
118, 107, 130, 117
117, 131, 118, 108
122, 114, 99, 118
129, 122, 127, 127
124, 117, 116, 126
113, 121, 132, 110
107, 117, 124, 126
100, 120, 138, 111
106, 107, 119, 134
107, 111, 120, 127
130, 110, 123, 122
126, 118, 117, 132
111, 130, 115, 119
124, 123, 120, 123
122, 128, 132, 120
118, 120, 135, 117
123, 120, 120, 132
120, 128, 114, 103
118, 126, 125, 138
140, 108, 127, 117
135, 125, 120, 146
103, 130, 119, 127
117, 105, 124, 120
115, 104, 123, 132
116, 107, 122, 127
121, 122, 114, 107
130, 122, 106, 117
116, 124, 105, 101
126, 103, 127, 130
115, 106, 122, 118
124, 119, 109, 129
129, 114, 126, 122
112, 120, 128, 117
106, 120, 127, 128
149, 116, 102, 122
125, 118, 93, 120
97, 107, 133, 100
106, 126, 135, 117
117, 125, 111, 123
113, 111, 144, 126
127, 124, 132, 113
96, 110, 108, 118
116, 117, 115, 121
140, 131, 109, 121
126, 118, 118, 152
120, 137, 120, 118
127, 134, 121, 115
105, 111, 144, 130
125, 131, 112, 119
114, 116, 101, 130
114, 119, 130, 138
120, 126, 112, 133
117, 133, 119, 107
129, 120, 109, 129
94, 127, 115, 120
126, 135, 129, 117
104, 98, 98, 121
104, 115, 131, 146
127, 135, 135, 115
99, 118, 116, 137
105, 133, 103, 122
105, 116, 131, 123
121, 137, 116, 123
117, 141, 128, 118
121, 132, 139, 122
145, 132, 125, 117
125, 115, 121, 136
119, 128, 126, 96
136, 127, 117, 123
119, 126, 103, 127
113, 127, 136, 119
116, 120, 138, 125
112, 123, 131, 118
133, 118, 112, 118
131, 113, 117, 130
128, 117, 134, 113
116, 121, 116, 116
130, 104, 112, 122
131, 123, 134, 138
111, 120, 112, 139
138, 120, 142, 120
128, 120, 119, 123
138, 110, 101, 112
126, 140, 100, 114
110, 139, 104, 137
141, 120, 125, 132
86, 113, 123, 124
125, 109, 96, 104
118, 127, 97, 125
112, 128, 105, 117
124, 115, 120, 128
123, 109, 94, 107
126, 132, 140, 128
115, 106, 131, 114
104, 103, 125, 136
117, 111, 130, 110
139, 125, 115, 122
129, 124, 107, 134
133, 141, 117, 135
134, 134, 123, 129
150, 113, 126, 123
114, 124, 119, 112
126, 108, 125, 128
111, 133, 134, 125
128, 126, 108, 108
105, 120, 104, 127
103, 125, 108, 130
116, 130, 143, 119
112, 106, 158, 127
108, 111, 111, 109
124, 128, 118, 142
119, 113, 120, 120
129, 127, 113, 134
129, 118, 134, 128
117, 121, 140, 124
134, 140, 145, 112
137, 130, 134, 129
111, 117, 124, 136
111, 137, 148, 115
130, 137, 143, 136
110, 120, 117, 113
120, 118, 130, 125
144, 115, 130, 119
117, 117, 117, 101
118, 115, 130, 134
126, 138, 121, 137
127, 141, 125, 140
126, 120, 144, 116
114, 138, 125, 107
111, 137, 129, 132
126, 145, 142, 116
133, 129, 115, 113
122, 129, 134, 117
114, 132, 122, 130
138, 141, 129, 129
135, 143, 130, 133
127, 130, 131, 135
124, 143, 113, 127
110, 131, 137, 128
152, 134, 126, 127
150, 133, 132, 133
127, 129, 131, 117
130, 135, 137, 121
124, 140, 145, 129
143, 163, 109, 141
147, 158, 141, 133
139, 151, 155, 121
158, 168, 155, 154
150, 147, 195, 189
200, 219, 233, 200
252, 234, 295, 305
315, 354, 334, 351
428, 461, 434, 471
499, 553, 554, 610
608, 643, 705, 757
657, 713, 734, 697
672, 656, 658, 704
667, 639, 604, 578
619, 563, 523, 480
466, 471, 459, 461
473, 460, 398, 393
421, 380, 386, 375
363, 353, 316, 366
293, 282, 271, 254
253, 242, 192, 199
189, 195, 138, 151
154, 146, 145, 144
133, 141, 116, 156
125, 148, 134, 128
118, 112, 146, 129
123, 128, 132, 125
120, 141, 137, 115
138, 133, 136, 111
118, 137, 124, 137
110, 135, 111, 138
131, 123, 138, 123
132, 132, 125, 125
141, 144, 138, 124
114, 125, 124, 122
138, 120, 148, 109
135, 107, 118, 123
94, 141, 130, 125
131, 134, 151, 113
120, 129, 127, 139
129, 126, 114, 112
117, 144, 110, 108
122, 115, 113, 112
119, 120, 140, 144
107, 114, 124, 114
131, 123, 120, 151
111, 118, 114, 111
128, 118, 136, 126
132, 133, 129, 136
126, 112, 102, 118
127, 147, 111, 129
112, 113, 128, 115
117, 86, 124, 135
129, 123, 139, 106
122, 112, 131, 141
109, 143, 121, 115
111, 127, 133, 144
139, 125, 112, 149
122, 118, 128, 106
135, 118, 125, 108
104, 116, 122, 105
137, 124, 109, 126
134, 122, 136, 123
113, 139, 129, 116
135, 129, 115, 116
136, 133, 132, 127
124, 129, 133, 114
129, 128, 122, 112
115, 131, 106, 139
130, 122, 148, 138
142, 128, 134, 137
132, 131, 149, 145
135, 118, 131, 119
119, 129, 148, 134
145, 121, 135, 126
127, 129, 130, 147
122, 112, 115, 121
113, 120, 111, 121
145, 112, 134, 109
140, 117, 128, 111
144, 127, 117, 106
128, 132, 130, 118
120, 125, 136, 147
107, 129, 110, 122
136, 115, 133, 109
125, 127, 125, 139
110, 113, 116, 121
113, 128, 125, 136
125, 116, 117, 132
113, 124, 114, 134
145, 117, 114, 132
108, 129, 124, 128
131, 104, 117, 141
118, 119, 125, 122
103, 133, 114, 122
127, 128, 104, 131
115, 124, 124, 105
138, 125, 106, 133
126, 121, 94, 120
121, 136, 142, 131
90, 104, 121, 127
116, 112, 119, 109
101, 143, 144, 121
124, 130, 138, 111
119, 116, 129, 126
123, 134, 123, 137
122, 115, 130, 118
133, 111, 123, 138
130, 128, 116, 108
120, 134, 112, 130
120, 108, 124, 106
112, 123, 127, 136
125, 111, 117, 130
130, 99, 123, 133
145, 116, 119, 110
129, 123, 116, 132
121, 136, 114, 127
122, 101, 124, 105
132, 114, 139, 110
119, 105, 144, 99
135, 108, 133, 106
120, 147, 114, 125
127, 130, 118, 121
108, 134, 148, 115
126, 128, 127, 119
127, 135, 121, 136
135, 125, 106, 123
129
*END

*EOF
