*TYPE		=  Raw
*CLASS		=  ASCII CLASS
*SAMPLE		=   
*COMMENT	=   
*FNAME		=  4-1_2-Theta_Omega.asc
*DATE		=  11-Dec-25 16:27

*GROUP_COUNT	=  1
*GONIO		=  SmartLab(In-plane), 0.000000
*ATTACHMENT	=  Z-Phi Stage
*ASC		=  0, 0, 0.000000, 0.000000
*I_MONOCHRO	=  Soller_slit_5.0deg, 0.000000
*FILTER		=  None
*C_MONOCHRO	=  None, 0.000000
*SLIT_NAME	=  0, Incident slit
*SLIT_NAME	=  1, Receiving slit # 1
*SLIT_NAME	=  2, Receiving slit # 2
*COUNTER	=  SC-70, 0
*POS_FORMAT	=  0
*SCAN_AXIS	=  2Theta/Omega
*MEAS_MODE	=  Continuous Scanning
*TARGET		=  29
*XRAY_CHAR	=  K-ALPHA
*WAVE_LENGTH1	=  1.54059
*WAVE_LENGTH2	=  1.54441
*THICKNESS	=  0, 0.000000
*MU		=  0, 0.000000
*SCAN_MODE	=  2Theta/Omega
*SPEED_DIM	=  sec./step
*XUNIT		=  deg.
*YUNIT		=  counts
*SCALE_MODE	=  1
*REP_COUNT	=  0
*SE_COUNT	=  0
*STD_MATERIAL	=  Unknown, Unknown, 0.000000, 0.000000, 0.000000, 0.000000, 0.000000, 0.000000
*LATT_CONS	=  0, Unknown, Unknown, 0.000000, 0.000000, 0.000000, 0.000000, 0.000000, 0.000000
*SEC_COUNT	=  1
*TSPEC_SIZE	=  0
*EXTRA_SIZE	=  0
*MEMO		=   

*BEGIN
*GROUP		=  0
*START		=  20
*STOP		=  80
*STEP		=  0.01
*OFFSET		=  0.000000
*SPEED		=  0.05
*SLIT_SPEC	=  0, 1.000mm, 1, 0.000000
*SLIT_SPEC	=  1, 1.000mm, 1, 0.000000
*SLIT_SPEC	=  2, 1.000mm, 1, 0.000000
*KV		=  40
*MA		=  100
*LOW		=  0.000000
*HIGH		=  0.000000
*CTEMPER	=  0, 0.000000
*CTEMPER	=  1, 0.000000
*CTEMPER	=  2, 0.000000
*PAREX		=  0, 0.000000
*PAREX		=  1, 0.000000
*PAREX		=  2, 0.000000
*PAREX		=  3, 0.000000
*PAREX		=  4, 0.000000
*PAREX		=  5, 0.000000
*PAREX		=  6, 0.000000
*PAREX		=  7, 0.000000
*PAREX		=  8, 0.000000
*PAREX		=  9, 0.000000
*PAREX		=  10, 0.000000
*PAREX		=  11, 0.000000
*PAREX		=  12, 0.000000
*PAREX		=  13, 0.000000
*PAREX		=  14, 0.000000
*PAREX		=  15, 0.000000
*FULL_SCALE	=  9792
*INDEX		=  0, 0, 0
*COUNT		=  6001
147, 111, 133, 136
110, 157, 138, 117
129, 120, 144, 130
153, 155, 140, 145
128, 135, 145, 136
133, 134, 147, 121
137, 121, 145, 120
132, 149, 151, 121
121, 140, 122, 148
133, 134, 148, 136
142, 125, 131, 127
129, 112, 142, 142
132, 128, 139, 145
127, 132, 132, 133
136, 116, 130, 146
137, 167, 132, 138
118, 117, 143, 116
125, 132, 129, 120
143, 122, 147, 125
115, 130, 167, 150
160, 152, 132, 119
132, 146, 133, 134
137, 138, 133, 125
128, 145, 118, 118
126, 143, 142, 133
126, 144, 133, 120
133, 142, 116, 150
121, 137, 147, 139
145, 138, 130, 141
136, 148, 112, 144
129, 140, 134, 145
126, 125, 125, 140
126, 136, 147, 125
143, 150, 136, 138
126, 128, 131, 129
134, 129, 143, 121
147, 129, 124, 116
133, 120, 144, 141
139, 126, 131, 142
136, 144, 148, 124
148, 151, 158, 138
150, 135, 136, 122
111, 136, 130, 137
148, 140, 138, 126
131, 160, 144, 125
130, 141, 127, 152
150, 133, 120, 124
129, 142, 122, 121
138, 136, 140, 127
127, 144, 113, 141
140, 138, 146, 117
117, 129, 140, 136
151, 130, 128, 139
134, 144, 150, 141
122, 136, 132, 138
141, 155, 144, 119
140, 135, 156, 141
130, 152, 151, 136
142, 139, 128, 136
154, 120, 120, 140
102, 134, 134, 149
125, 121, 136, 126
149, 135, 134, 123
144, 148, 132, 142
146, 124, 136, 133
143, 103, 151, 112
148, 136, 138, 157
143, 125, 123, 152
114, 115, 124, 135
140, 133, 142, 131
124, 141, 137, 128
129, 134, 135, 136
118, 126, 133, 149
143, 128, 153, 131
141, 139, 135, 145
141, 135, 126, 124
126, 117, 142, 140
146, 146, 132, 128
136, 114, 140, 156
130, 139, 151, 113
130, 132, 155, 124
139, 130, 128, 120
138, 132, 144, 121
143, 136, 135, 106
135, 133, 129, 144
119, 164, 122, 136
149, 118, 127, 135
129, 116, 120, 170
139, 131, 138, 143
127, 133, 165, 144
134, 122, 146, 151
145, 137, 119, 158
132, 125, 117, 145
128, 152, 143, 135
148, 129, 134, 141
136, 148, 126, 113
118, 138, 158, 132
128, 115, 145, 125
130, 125, 149, 113
128, 130, 126, 143
125, 125, 133, 132
135, 125, 127, 138
124, 140, 138, 130
120, 124, 134, 147
138, 145, 128, 132
136, 122, 144, 131
138, 123, 149, 151
133, 154, 141, 143
139, 154, 129, 108
130, 146, 159, 139
122, 128, 146, 146
149, 119, 117, 149
129, 145, 126, 133
150, 139, 140, 128
150, 141, 137, 124
112, 115, 147, 124
148, 114, 124, 145
128, 142, 135, 126
119, 136, 142, 143
135, 125, 141, 122
137, 146, 139, 160
113, 164, 151, 129
134, 136, 135, 130
127, 137, 143, 140
128, 150, 131, 128
148, 158, 118, 128
138, 140, 128, 129
149, 128, 128, 118
125, 132, 111, 123
123, 144, 120, 130
134, 134, 152, 124
129, 131, 144, 139
133, 118, 129, 139
140, 136, 128, 133
99, 135, 142, 145
156, 115, 166, 137
143, 139, 121, 142
153, 131, 142, 126
140, 143, 133, 135
137, 144, 144, 146
134, 154, 155, 131
135, 124, 162, 149
146, 123, 137, 126
114, 141, 140, 137
141, 137, 141, 129
118, 127, 149, 128
114, 132, 130, 121
135, 154, 133, 138
139, 135, 141, 145
122, 153, 147, 138
138, 126, 130, 123
136, 117, 132, 134
154, 110, 134, 135
144, 126, 137, 136
131, 112, 127, 140
134, 165, 136, 165
139, 136, 140, 131
125, 142, 140, 136
138, 137, 123, 124
157, 130, 134, 126
131, 127, 135, 139
117, 125, 148, 127
136, 124, 146, 142
135, 141, 123, 143
138, 130, 129, 131
127, 144, 125, 117
126, 157, 151, 144
139, 143, 126, 152
124, 127, 126, 137
146, 121, 141, 131
130, 130, 131, 135
155, 132, 133, 119
125, 144, 149, 138
145, 132, 109, 136
122, 134, 140, 122
135, 129, 137, 153
141, 109, 115, 155
121, 99, 143, 132
135, 139, 143, 145
120, 159, 150, 147
107, 141, 157, 125
115, 134, 131, 130
157, 140, 147, 135
117, 133, 117, 140
128, 126, 132, 119
147, 130, 133, 118
147, 143, 142, 130
149, 126, 141, 140
115, 110, 127, 142
139, 122, 141, 128
136, 120, 142, 136
123, 141, 150, 130
120, 129, 157, 155
133, 117, 125, 133
150, 113, 154, 157
135, 135, 131, 143
130, 124, 137, 131
131, 126, 105, 121
116, 159, 134, 140
139, 122, 153, 111
112, 143, 124, 137
136, 146, 136, 128
130, 130, 137, 156
114, 120, 152, 140
147, 138, 116, 142
119, 129, 139, 146
124, 141, 139, 127
148, 124, 136, 135
129, 140, 141, 104
124, 131, 145, 136
136, 125, 130, 122
121, 142, 131, 146
136, 141, 116, 121
126, 147, 134, 126
145, 151, 134, 139
135, 140, 122, 145
129, 142, 154, 148
134, 125, 120, 131
126, 126, 136, 153
144, 131, 135, 126
142, 149, 139, 125
127, 106, 137, 130
111, 133, 132, 122
141, 150, 130, 143
127, 164, 125, 114
169, 136, 152, 128
117, 130, 151, 130
133, 121, 127, 150
117, 120, 138, 143
135, 141, 156, 146
137, 128, 116, 149
145, 126, 129, 135
130, 139, 139, 135
135, 119, 133, 142
142, 119, 136, 128
117, 154, 123, 133
133, 136, 144, 150
145, 127, 138, 144
123, 109, 126, 140
141, 137, 143, 146
128, 116, 130, 131
131, 129, 111, 144
129, 148, 164, 121
127, 137, 120, 129
145, 124, 135, 126
131, 139, 152, 121
144, 156, 130, 138
135, 140, 147, 130
131, 130, 141, 138
148, 130, 124, 125
137, 146, 126, 147
128, 124, 148, 125
138, 127, 133, 171
143, 113, 140, 154
141, 139, 135, 153
127, 162, 158, 119
126, 151, 127, 132
139, 147, 124, 124
144, 118, 136, 153
128, 118, 136, 149
120, 123, 129, 127
152, 131, 140, 155
138, 144, 130, 126
139, 136, 122, 107
146, 128, 132, 128
147, 141, 130, 156
122, 127, 157, 140
146, 142, 139, 137
136, 120, 140, 128
149, 129, 139, 132
147, 141, 135, 124
125, 135, 146, 137
118, 147, 132, 137
127, 140, 133, 134
154, 142, 126, 166
152, 132, 136, 145
118, 126, 137, 135
137, 128, 146, 133
148, 143, 151, 116
138, 133, 149, 125
151, 149, 138, 118
144, 135, 152, 152
142, 131, 128, 142
139, 121, 141, 139
133, 143, 144, 128
136, 160, 138, 154
146, 127, 140, 138
122, 146, 121, 133
125, 116, 147, 126
132, 126, 150, 141
149, 161, 133, 133
125, 126, 135, 129
129, 133, 138, 130
126, 132, 142, 134
128, 136, 122, 135
133, 152, 145, 133
142, 144, 129, 146
137, 145, 140, 138
132, 124, 153, 131
118, 111, 128, 137
120, 150, 124, 130
147, 139, 147, 132
129, 140, 143, 146
135, 161, 118, 129
133, 136, 125, 163
147, 134, 141, 124
147, 151, 123, 127
123, 141, 116, 140
145, 152, 130, 131
135, 132, 160, 111
138, 126, 139, 128
138, 138, 128, 111
158, 148, 137, 134
124, 136, 136, 149
141, 152, 127, 136
142, 138, 157, 136
135, 138, 121, 162
134, 152, 126, 142
120, 133, 141, 140
136, 141, 138, 157
126, 145, 122, 155
128, 143, 146, 158
129, 127, 127, 135
158, 126, 133, 145
121, 123, 134, 141
130, 146, 141, 120
135, 129, 135, 133
127, 158, 131, 126
144, 114, 125, 129
163, 153, 140, 127
138, 128, 137, 131
132, 151, 134, 152
133, 144, 152, 148
151, 135, 132, 144
132, 137, 135, 135
137, 142, 144, 135
144, 114, 163, 132
135, 106, 123, 135
137, 145, 134, 136
151, 149, 159, 149
139, 128, 139, 138
144, 159, 124, 139
153, 122, 133, 140
138, 145, 126, 123
153, 153, 125, 138
144, 146, 138, 155
129, 147, 135, 124
138, 159, 121, 121
143, 128, 136, 121
146, 144, 140, 125
139, 147, 112, 125
158, 154, 143, 127
129, 145, 145, 144
143, 119, 151, 137
114, 131, 137, 135
131, 174, 133, 137
151, 151, 146, 158
160, 147, 121, 138
130, 122, 134, 134
151, 143, 130, 132
133, 166, 142, 121
142, 163, 145, 144
145, 145, 138, 115
136, 161, 139, 144
126, 137, 157, 148
133, 142, 143, 127
142, 127, 128, 168
147, 145, 142, 138
149, 162, 126, 124
150, 144, 140, 150
146, 129, 157, 130
158, 151, 157, 140
141, 158, 136, 152
136, 119, 156, 103
128, 128, 141, 133
140, 133, 120, 146
154, 140, 115, 129
142, 137, 158, 141
151, 128, 153, 118
127, 136, 118, 134
145, 127, 144, 153
131, 134, 162, 119
145, 139, 135, 169
141, 122, 135, 140
124, 164, 147, 144
126, 136, 154, 151
147, 126, 144, 144
144, 155, 131, 134
141, 140, 139, 126
151, 152, 144, 152
128, 162, 119, 121
154, 147, 147, 126
130, 151, 144, 138
137, 143, 138, 130
139, 127, 135, 156
149, 121, 163, 151
132, 147, 135, 132
150, 129, 132, 138
142, 127, 131, 132
146, 143, 125, 138
149, 135, 125, 131
124, 95, 149, 125
144, 162, 122, 126
132, 138, 151, 144
149, 134, 139, 145
152, 142, 170, 156
139, 128, 158, 127
128, 120, 116, 127
140, 127, 135, 134
135, 138, 138, 165
165, 131, 135, 137
153, 138, 160, 136
146, 163, 138, 146
137, 127, 135, 122
144, 127, 148, 150
147, 150, 147, 143
143, 141, 156, 133
129, 147, 148, 133
121, 132, 141, 141
149, 148, 150, 140
139, 147, 125, 136
132, 148, 148, 144
129, 144, 128, 143
149, 128, 130, 152
140, 130, 145, 158
143, 134, 157, 137
129, 117, 143, 147
150, 126, 136, 163
148, 153, 148, 130
129, 123, 126, 145
147, 141, 130, 111
133, 130, 147, 111
135, 147, 139, 154
132, 141, 153, 144
125, 132, 132, 120
136, 132, 136, 154
128, 156, 145, 148
120, 145, 128, 154
142, 161, 115, 143
147, 138, 137, 138
136, 136, 135, 141
131, 157, 154, 135
135, 137, 159, 140
156, 130, 159, 141
156, 152, 137, 151
139, 140, 157, 134
143, 139, 138, 130
142, 139, 136, 142
151, 158, 150, 130
122, 153, 138, 139
126, 123, 152, 145
145, 153, 142, 136
143, 136, 159, 143
140, 117, 135, 142
135, 157, 122, 117
132, 153, 157, 134
140, 134, 167, 161
163, 125, 163, 154
132, 148, 143, 142
151, 169, 148, 131
146, 126, 146, 130
156, 136, 140, 146
147, 137, 120, 133
145, 146, 145, 157
147, 117, 143, 148
137, 152, 134, 145
139, 129, 148, 139
145, 140, 134, 150
141, 131, 148, 123
151, 152, 144, 134
131, 134, 126, 152
155, 126, 138, 169
149, 126, 148, 140
124, 142, 148, 134
150, 153, 140, 125
133, 131, 146, 144
126, 148, 156, 146
142, 171, 147, 148
147, 154, 152, 127
138, 130, 161, 147
143, 152, 123, 134
146, 138, 134, 130
132, 156, 164, 137
164, 110, 147, 132
144, 139, 142, 140
151, 125, 141, 137
131, 142, 143, 142
146, 153, 142, 142
136, 165, 161, 155
137, 148, 125, 127
157, 124, 139, 168
151, 159, 141, 142
142, 168, 148, 148
139, 141, 147, 139
128, 136, 145, 132
134, 132, 149, 132
139, 136, 144, 148
137, 144, 155, 127
139, 147, 136, 159
140, 120, 153, 162
132, 139, 153, 148
147, 125, 184, 127
128, 140, 151, 143
142, 128, 132, 152
127, 141, 136, 126
148, 160, 137, 142
142, 145, 153, 152
147, 147, 146, 152
141, 150, 146, 156
118, 140, 129, 139
139, 163, 127, 146
156, 180, 134, 156
129, 158, 139, 141
140, 153, 134, 136
138, 139, 144, 177
151, 135, 141, 135
141, 150, 119, 123
141, 153, 135, 146
138, 135, 149, 141
139, 128, 135, 157
122, 157, 127, 127
137, 147, 137, 145
156, 171, 154, 142
142, 164, 125, 149
162, 141, 154, 140
149, 142, 125, 165
155, 120, 120, 153
125, 151, 151, 145
133, 141, 128, 127
150, 129, 153, 147
137, 140, 145, 140
135, 136, 114, 138
128, 148, 137, 139
128, 162, 135, 147
138, 150, 124, 132
153, 160, 139, 167
145, 148, 148, 143
148, 143, 136, 153
146, 149, 132, 124
137, 134, 144, 155
162, 125, 154, 142
145, 143, 138, 167
143, 151, 142, 134
141, 141, 148, 150
133, 156, 170, 134
173, 157, 142, 140
134, 151, 166, 143
137, 146, 134, 149
147, 138, 130, 143
121, 158, 158, 120
140, 141, 155, 118
131, 124, 146, 137
141, 164, 150, 132
134, 169, 123, 142
137, 155, 170, 128
148, 155, 146, 138
156, 159, 144, 160
172, 144, 147, 153
180, 148, 132, 159
152, 162, 179, 135
161, 152, 159, 138
164, 151, 160, 150
141, 150, 162, 130
148, 145, 146, 167
150, 160, 140, 157
156, 144, 167, 128
153, 154, 155, 135
143, 160, 145, 142
132, 147, 151, 144
156, 146, 152, 177
154, 157, 170, 138
149, 134, 154, 138
156, 162, 125, 136
168, 123, 143, 146
132, 155, 135, 129
158, 129, 150, 150
153, 129, 151, 129
118, 140, 153, 163
143, 149, 150, 146
139, 124, 147, 164
171, 148, 159, 129
169, 147, 140, 143
149, 157, 124, 155
137, 143, 140, 164
150, 164, 145, 156
158, 136, 124, 143
152, 150, 147, 173
148, 147, 140, 161
157, 133, 153, 145
156, 153, 162, 155
146, 147, 146, 132
159, 149, 158, 146
165, 147, 152, 145
152, 155, 139, 172
157, 156, 162, 138
157, 157, 172, 177
174, 150, 190, 148
146, 142, 158, 158
171, 166, 173, 167
189, 198, 178, 169
184, 185, 184, 221
213, 190, 195, 230
191, 221, 248, 282
254, 277, 267, 268
281, 285, 316, 351
287, 333, 346, 311
362, 334, 369, 389
383, 351, 380, 361
378, 369, 363, 366
408, 367, 341, 295
345, 337, 354, 287
322, 331, 292, 279
261, 254, 278, 264
220, 260, 251, 222
235, 236, 190, 231
193, 159, 162, 203
160, 202, 174, 179
155, 180, 171, 199
194, 199, 186, 145
181, 170, 139, 163
150, 167, 166, 166
173, 161, 149, 153
151, 162, 139, 165
152, 172, 146, 158
144, 153, 153, 147
133, 141, 132, 143
178, 130, 150, 132
151, 134, 176, 143
155, 144, 161, 153
162, 160, 155, 141
145, 161, 140, 154
170, 159, 143, 143
133, 146, 138, 133
139, 149, 128, 137
158, 139, 152, 159
166, 140, 161, 145
149, 168, 142, 151
138, 158, 140, 150
146, 171, 147, 149
152, 139, 132, 135
137, 143, 138, 157
162, 160, 169, 148
152, 159, 149, 143
153, 158, 155, 144
148, 150, 140, 143
157, 146, 154, 173
160, 146, 159, 152
160, 143, 131, 156
160, 123, 144, 137
153, 140, 123, 154
133, 158, 134, 144
154, 166, 151, 145
148, 161, 155, 166
145, 147, 144, 161
155, 147, 147, 158
137, 151, 143, 163
157, 135, 139, 173
141, 141, 163, 161
151, 143, 144, 122
148, 157, 176, 163
119, 143, 165, 167
158, 126, 135, 132
152, 136, 162, 161
137, 149, 156, 132
157, 136, 152, 152
149, 145, 156, 124
138, 140, 150, 139
162, 172, 177, 160
152, 140, 136, 131
139, 155, 142, 138
145, 125, 165, 155
149, 143, 165, 161
152, 149, 142, 132
172, 140, 152, 153
157, 145, 149, 156
150, 137, 133, 144
150, 144, 141, 144
149, 122, 163, 137
155, 148, 165, 153
141, 137, 180, 143
158, 161, 151, 132
160, 147, 133, 150
150, 137, 152, 138
133, 166, 135, 165
142, 154, 130, 152
175, 155, 132, 153
149, 145, 173, 157
142, 143, 144, 171
157, 133, 148, 145
155, 166, 164, 130
158, 146, 153, 135
162, 145, 144, 125
133, 159, 168, 148
156, 126, 147, 145
151, 135, 136, 143
148, 140, 158, 153
151, 148, 142, 128
157, 127, 144, 156
152, 162, 147, 160
146, 167, 133, 146
150, 148, 160, 152
166, 152, 144, 167
144, 157, 145, 154
166, 158, 149, 171
157, 156, 157, 160
167, 125, 170, 136
175, 148, 134, 150
171, 132, 139, 133
152, 158, 153, 147
147, 148, 168, 146
126, 147, 159, 168
122, 162, 119, 151
158, 153, 146, 163
147, 169, 168, 148
160, 170, 146, 172
151, 159, 148, 153
170, 157, 134, 159
150, 152, 147, 148
166, 155, 164, 153
145, 146, 139, 131
154, 130, 145, 128
142, 143, 144, 140
131, 134, 146, 151
132, 138, 152, 154
155, 122, 169, 153
135, 156, 156, 165
128, 153, 147, 133
158, 130, 150, 163
151, 147, 134, 142
151, 132, 139, 151
143, 145, 156, 153
155, 136, 161, 175
173, 145, 150, 143
145, 147, 179, 163
144, 156, 155, 153
155, 153, 158, 148
149, 137, 159, 145
143, 147, 158, 143
152, 163, 105, 139
156, 147, 148, 160
157, 166, 164, 154
153, 164, 135, 159
146, 143, 146, 136
148, 171, 150, 134
151, 150, 163, 143
141, 161, 155, 146
161, 150, 149, 147
156, 145, 157, 144
167, 125, 154, 149
151, 159, 165, 138
159, 152, 155, 142
143, 145, 157, 139
169, 157, 124, 142
163, 149, 151, 121
140, 146, 156, 148
156, 152, 163, 134
164, 149, 122, 130
170, 158, 142, 158
149, 155, 157, 127
139, 143, 164, 147
124, 132, 145, 171
164, 144, 145, 135
145, 167, 176, 131
134, 141, 158, 181
160, 143, 149, 153
145, 147, 150, 158
141, 140, 141, 161
179, 150, 147, 159
153, 161, 138, 164
166, 174, 152, 174
149, 138, 145, 157
156, 156, 182, 158
144, 151, 158, 139
159, 138, 158, 122
152, 152, 181, 138
169, 150, 161, 162
143, 154, 134, 143
165, 152, 166, 167
147, 153, 141, 144
144, 154, 159, 164
145, 167, 147, 149
150, 137, 139, 149
164, 147, 145, 152
167, 150, 158, 158
167, 149, 145, 139
153, 143, 148, 157
168, 153, 155, 141
162, 131, 170, 156
149, 173, 150, 137
143, 159, 158, 153
159, 145, 123, 136
163, 168, 150, 133
182, 148, 139, 166
154, 165, 136, 160
137, 148, 139, 154
166, 164, 151, 138
145, 140, 152, 146
161, 158, 147, 150
152, 152, 147, 134
144, 132, 146, 153
141, 141, 171, 152
149, 136, 160, 139
177, 144, 149, 139
174, 135, 162, 141
153, 185, 163, 137
159, 168, 146, 141
158, 157, 144, 154
154, 167, 149, 162
158, 157, 125, 146
153, 146, 163, 144
143, 154, 163, 151
154, 148, 143, 145
157, 146, 143, 165
168, 146, 141, 157
139, 158, 142, 156
178, 139, 153, 142
140, 142, 164, 174
149, 159, 144, 140
173, 153, 153, 159
121, 134, 149, 157
168, 134, 145, 150
119, 155, 140, 160
159, 154, 135, 151
168, 141, 154, 160
148, 164, 177, 161
159, 171, 160, 147
155, 143, 160, 152
157, 164, 155, 143
187, 143, 143, 140
158, 163, 162, 179
153, 154, 182, 160
176, 154, 151, 159
154, 121, 147, 153
156, 160, 147, 154
147, 140, 160, 152
140, 179, 120, 135
150, 175, 159, 169
162, 148, 172, 151
147, 145, 151, 163
148, 151, 154, 139
159, 149, 160, 158
154, 150, 145, 150
150, 140, 144, 149
166, 139, 158, 154
141, 152, 145, 145
154, 146, 162, 150
169, 131, 177, 169
152, 141, 152, 161
134, 171, 152, 164
163, 139, 150, 181
109, 144, 165, 148
165, 139, 137, 153
145, 162, 163, 138
151, 130, 168, 143
157, 126, 148, 178
166, 139, 147, 182
147, 150, 144, 183
153, 136, 153, 132
147, 147, 150, 160
162, 156, 151, 136
151, 167, 170, 153
151, 161, 151, 140
157, 154, 160, 146
170, 164, 151, 159
154, 138, 136, 128
164, 176, 181, 168
177, 131, 157, 158
155, 165, 123, 148
166, 157, 146, 161
165, 154, 148, 158
157, 143, 141, 161
178, 151, 153, 162
149, 149, 156, 167
161, 172, 162, 144
170, 149, 162, 159
132, 156, 152, 142
144, 157, 149, 160
155, 148, 152, 130
140, 170, 153, 158
153, 165, 145, 154
167, 141, 150, 191
171, 165, 195, 155
146, 140, 165, 153
172, 147, 158, 186
131, 164, 153, 160
147, 153, 148, 156
177, 169, 160, 155
161, 168, 173, 160
152, 165, 166, 169
154, 145, 149, 159
156, 160, 120, 154
193, 148, 158, 135
157, 135, 152, 158
167, 178, 147, 151
173, 133, 141, 154
181, 147, 109, 151
145, 139, 146, 172
158, 157, 160, 161
169, 167, 175, 125
157, 155, 140, 146
169, 136, 146, 151
142, 163, 152, 139
156, 149, 145, 176
151, 131, 140, 150
157, 169, 150, 158
152, 155, 146, 154
155, 161, 129, 153
155, 170, 156, 158
165, 169, 159, 161
137, 134, 164, 150
166, 144, 129, 142
148, 158, 161, 137
154, 167, 147, 168
158, 147, 169, 152
137, 152, 142, 134
156, 145, 160, 135
148, 140, 139, 141
148, 154, 168, 161
143, 145, 149, 139
167, 171, 154, 137
160, 140, 154, 148
145, 153, 172, 167
134, 135, 175, 144
169, 155, 127, 138
128, 165, 168, 157
163, 159, 132, 176
172, 165, 174, 144
153, 158, 155, 178
147, 141, 165, 161
158, 147, 133, 136
164, 177, 147, 163
157, 161, 147, 155
157, 167, 164, 147
144, 153, 153, 163
135, 145, 146, 167
155, 155, 156, 150
158, 140, 149, 170
164, 155, 135, 156
173, 152, 153, 186
165, 164, 166, 163
165, 154, 160, 159
147, 164, 149, 142
171, 144, 169, 154
157, 129, 163, 150
165, 143, 147, 175
168, 163, 156, 150
157, 136, 155, 169
179, 160, 157, 146
179, 168, 166, 161
183, 152, 162, 153
169, 151, 154, 150
124, 161, 166, 161
161, 160, 156, 168
132, 152, 154, 153
148, 154, 156, 146
138, 167, 155, 170
153, 165, 160, 144
159, 164, 178, 154
168, 167, 158, 143
161, 144, 128, 155
133, 166, 156, 169
159, 148, 150, 162
161, 163, 157, 151
147, 157, 149, 158
148, 143, 147, 130
151, 153, 189, 129
182, 155, 150, 169
163, 144, 155, 184
158, 166, 173, 171
163, 186, 149, 152
161, 163, 155, 146
165, 153, 170, 135
157, 148, 170, 150
156, 139, 159, 152
159, 167, 146, 166
158, 174, 169, 150
170, 152, 170, 141
159, 149, 155, 178
166, 162, 143, 141
179, 160, 165, 160
158, 155, 141, 161
173, 155, 144, 154
172, 161, 162, 164
140, 138, 140, 147
159, 134, 150, 147
159, 149, 162, 163
159, 159, 149, 141
148, 158, 154, 172
159, 150, 158, 137
150, 175, 164, 148
163, 145, 158, 147
149, 156, 157, 147
163, 157, 130, 143
135, 172, 165, 166
148, 158, 170, 171
147, 159, 148, 190
153, 169, 140, 137
176, 166, 150, 150
147, 166, 157, 168
152, 144, 165, 141
141, 158, 163, 155
170, 163, 179, 158
165, 150, 125, 178
150, 145, 156, 169
146, 154, 160, 131
167, 142, 153, 159
162, 173, 171, 185
171, 150, 152, 159
165, 151, 144, 133
184, 168, 175, 174
164, 172, 151, 165
154, 159, 159, 141
170, 148, 149, 159
174, 158, 155, 148
166, 167, 155, 177
167, 158, 154, 177
170, 168, 174, 166
160, 197, 168, 147
164, 156, 177, 160
168, 175, 142, 162
172, 147, 168, 153
152, 150, 176, 164
175, 164, 152, 168
156, 160, 152, 163
154, 155, 174, 168
138, 182, 174, 146
168, 172, 144, 159
177, 152, 141, 188
175, 151, 143, 160
153, 163, 161, 153
151, 155, 167, 164
155, 170, 164, 144
163, 159, 150, 168
146, 162, 150, 146
157, 159, 146, 171
166, 172, 178, 147
165, 162, 162, 153
162, 152, 138, 148
165, 165, 167, 149
157, 162, 175, 161
165, 174, 154, 169
160, 157, 191, 161
156, 177, 159, 155
158, 157, 175, 153
160, 152, 142, 155
179, 160, 173, 153
165, 164, 168, 145
177, 146, 151, 169
164, 151, 159, 141
162, 135, 143, 165
146, 163, 176, 169
139, 170, 166, 175
159, 156, 150, 150
164, 157, 182, 171
153, 156, 157, 144
169, 159, 167, 143
170, 167, 158, 157
165, 180, 158, 158
157, 164, 134, 180
149, 165, 148, 156
143, 180, 147, 180
158, 167, 148, 147
155, 155, 169, 160
149, 161, 174, 165
153, 176, 157, 164
160, 147, 142, 144
134, 189, 174, 181
143, 157, 146, 162
168, 173, 184, 138
147, 140, 164, 167
140, 171, 145, 150
156, 143, 167, 156
148, 159, 163, 182
149, 151, 159, 173
168, 171, 163, 157
153, 155, 156, 170
165, 162, 163, 160
151, 155, 157, 154
144, 133, 167, 170
145, 166, 159, 131
149, 141, 155, 160
176, 167, 149, 147
155, 190, 147, 173
149, 144, 162, 162
164, 145, 129, 146
149, 147, 181, 148
166, 151, 153, 151
148, 174, 173, 144
144, 183, 137, 154
155, 156, 164, 153
163, 154, 153, 168
162, 177, 197, 164
151, 177, 162, 178
152, 143, 186, 164
150, 141, 161, 173
182, 161, 153, 178
165, 152, 145, 168
141, 160, 154, 166
174, 171, 154, 193
176, 173, 176, 168
160, 165, 163, 152
148, 175, 192, 160
147, 134, 152, 152
171, 174, 173, 170
174, 207, 185, 160
150, 173, 166, 153
171, 171, 150, 179
165, 173, 188, 173
201, 193, 200, 182
199, 192, 180, 187
190, 182, 199, 196
188, 168, 186, 203
168, 182, 206, 188
193, 173, 184, 179
205, 190, 174, 169
181, 181, 231, 170
171, 196, 177, 190
188, 195, 200, 172
153, 173, 188, 185
172, 185, 170, 178
182, 170, 196, 183
177, 151, 165, 160
179, 173, 177, 182
184, 177, 188, 168
158, 137, 173, 198
190, 190, 170, 164
174, 165, 160, 169
174, 168, 166, 158
177, 168, 154, 166
176, 176, 165, 161
145, 154, 169, 141
165, 177, 163, 166
153, 136, 162, 173
155, 164, 180, 174
178, 160, 156, 150
158, 161, 164, 145
153, 168, 154, 169
150, 168, 167, 162
166, 158, 152, 163
147, 166, 183, 165
158, 156, 149, 180
161, 145, 168, 178
179, 150, 151, 163
176, 177, 156, 159
170, 180, 175, 164
154, 158, 176, 158
175, 167, 162, 171
160, 148, 151, 180
168, 154, 156, 151
183, 157, 167, 159
154, 172, 161, 148
155, 158, 158, 151
145, 173, 146, 144
148, 166, 144, 153
145, 160, 156, 156
149, 176, 175, 161
171, 149, 165, 136
154, 180, 160, 164
155, 155, 167, 132
130, 170, 152, 174
163, 148, 153, 172
172, 164, 164, 144
151, 160, 156, 159
152, 152, 150, 168
140, 173, 153, 141
171, 158, 176, 150
138, 177, 134, 151
183, 157, 164, 158
163, 165, 155, 173
154, 183, 181, 164
151, 163, 174, 170
175, 166, 172, 176
164, 177, 155, 162
161, 168, 162, 169
153, 144, 160, 172
165, 165, 142, 171
184, 153, 160, 158
143, 175, 171, 151
159, 158, 171, 162
149, 170, 158, 138
154, 181, 146, 168
184, 158, 185, 168
179, 151, 170, 181
170, 178, 161, 176
164, 140, 177, 151
178, 140, 149, 170
150, 166, 176, 156
159, 163, 163, 143
168, 176, 182, 177
163, 155, 176, 162
162, 154, 141, 153
191, 161, 168, 169
169, 154, 167, 162
152, 180, 173, 134
168, 176, 148, 186
156, 146, 176, 144
151, 166, 153, 161
163, 156, 164, 191
143, 174, 147, 176
156, 173, 169, 150
164, 157, 157, 155
173, 149, 171, 158
153, 159, 174, 172
150, 182, 148, 165
174, 157, 165, 160
151, 173, 156, 165
148, 184, 144, 158
157, 143, 152, 149
195, 160, 164, 154
158, 153, 157, 172
163, 171, 157, 161
171, 165, 189, 147
150, 151, 139, 164
156, 144, 183, 152
158, 168, 168, 158
179, 153, 152, 163
147, 174, 150, 177
189, 160, 149, 165
163, 153, 166, 176
168, 184, 184, 141
193, 135, 169, 136
167, 157, 202, 179
144, 168, 160, 165
167, 154, 153, 151
198, 171, 164, 186
176, 164, 174, 159
153, 139, 161, 159
172, 169, 164, 158
177, 166, 166, 161
156, 173, 159, 141
179, 166, 172, 177
172, 175, 194, 141
144, 174, 145, 154
159, 182, 167, 149
155, 171, 183, 165
175, 164, 184, 167
173, 161, 164, 173
164, 172, 164, 160
164, 168, 131, 185
161, 143, 162, 179
180, 131, 170, 179
174, 179, 161, 164
174, 159, 164, 150
160, 154, 165, 176
172, 199, 162, 179
157, 162, 152, 171
153, 153, 185, 183
154, 185, 170, 192
168, 160, 166, 151
167, 147, 150, 181
157, 135, 156, 175
164, 170, 152, 166
145, 153, 181, 154
173, 179, 155, 176
158, 162, 169, 186
179, 155, 165, 161
175, 170, 187, 154
165, 156, 142, 167
173, 129, 169, 175
172, 167, 160, 164
169, 163, 177, 160
183, 176, 163, 174
171, 178, 148, 172
168, 181, 168, 136
168, 168, 138, 159
155, 158, 148, 152
150, 166, 163, 157
154, 176, 144, 160
166, 154, 173, 180
173, 167, 140, 144
164, 152, 156, 154
182, 182, 166, 150
169, 166, 175, 156
183, 184, 180, 156
149, 177, 164, 168
166, 164, 166, 143
158, 152, 160, 176
156, 153, 173, 144
192, 150, 174, 164
153, 148, 171, 176
182, 131, 173, 154
157, 151, 161, 153
171, 198, 177, 203
182, 157, 169, 180
165, 172, 179, 174
168, 178, 151, 160
186, 181, 176, 156
172, 182, 163, 155
150, 158, 201, 175
163, 167, 173, 159
161, 157, 171, 169
163, 162, 146, 180
177, 178, 141, 164
163, 156, 156, 165
164, 166, 160, 165
164, 152, 177, 191
175, 144, 168, 193
175, 172, 176, 170
159, 157, 147, 162
144, 157, 173, 172
181, 176, 148, 191
160, 179, 187, 132
183, 167, 174, 159
165, 163, 171, 163
151, 154, 147, 186
168, 177, 171, 172
147, 154, 161, 162
176, 197, 193, 160
192, 166, 185, 176
161, 164, 161, 164
161, 168, 177, 179
173, 140, 171, 161
199, 184, 149, 189
163, 181, 171, 169
155, 164, 170, 161
191, 161, 152, 163
175, 168, 156, 178
159, 166, 179, 176
152, 185, 163, 159
142, 177, 157, 146
170, 175, 186, 157
164, 167, 151, 153
166, 169, 186, 138
167, 168, 154, 186
168, 183, 177, 194
192, 153, 160, 190
166, 182, 151, 168
171, 169, 161, 180
161, 183, 159, 155
173, 180, 178, 172
163, 152, 167, 153
148, 170, 162, 161
175, 155, 155, 170
172, 166, 173, 147
184, 172, 164, 166
145, 153, 175, 167
164, 182, 165, 176
153, 167, 175, 194
175, 168, 189, 167
172, 156, 166, 157
200, 153, 148, 170
174, 178, 189, 178
178, 171, 181, 163
172, 173, 198, 161
177, 167, 181, 157
160, 166, 166, 166
173, 164, 171, 167
154, 159, 168, 163
166, 174, 163, 178
173, 160, 167, 175
157, 165, 175, 163
148, 192, 182, 168
166, 171, 209, 171
175, 189, 159, 178
174, 158, 159, 167
177, 185, 159, 164
172, 155, 162, 174
186, 195, 164, 164
177, 176, 207, 180
136, 177, 170, 176
176, 185, 181, 172
177, 168, 192, 192
178, 171, 178, 148
175, 154, 161, 167
158, 176, 170, 153
176, 166, 180, 158
165, 175, 180, 161
173, 179, 173, 186
146, 172, 167, 179
171, 176, 166, 178
181, 193, 157, 160
150, 170, 186, 170
170, 190, 151, 177
161, 177, 176, 155
174, 171, 189, 163
201, 165, 171, 196
174, 178, 164, 175
159, 161, 173, 162
171, 175, 136, 171
169, 193, 181, 178
151, 165, 171, 156
185, 166, 179, 184
172, 175, 157, 149
171, 179, 136, 210
167, 177, 149, 198
152, 157, 185, 181
174, 153, 176, 179
173, 167, 164, 171
175, 174, 162, 154
190, 168, 157, 186
170, 172, 189, 153
174, 168, 189, 174
188, 158, 180, 164
166, 166, 172, 185
172, 171, 156, 165
171, 188, 148, 182
184, 185, 180, 193
168, 170, 177, 175
191, 173, 210, 185
168, 168, 180, 176
164, 165, 188, 170
188, 181, 173, 145
191, 164, 174, 181
168, 174, 162, 168
156, 151, 157, 170
178, 155, 167, 165
171, 161, 172, 180
155, 182, 161, 159
181, 179, 154, 185
177, 171, 170, 178
162, 200, 167, 164
183, 157, 172, 178
183, 178, 163, 146
174, 185, 145, 161
150, 183, 177, 167
193, 163, 198, 157
174, 191, 169, 165
152, 187, 184, 168
148, 175, 190, 173
170, 160, 172, 186
194, 146, 167, 203
173, 169, 176, 164
183, 170, 176, 181
157, 172, 167, 176
184, 172, 165, 193
165, 157, 185, 168
168, 168, 192, 188
162, 219, 168, 173
167, 161, 165, 153
170, 179, 172, 182
163, 184, 160, 185
183, 186, 185, 173
175, 148, 172, 190
186, 171, 176, 178
183, 185, 150, 167
161, 166, 175, 179
170, 181, 186, 180
190, 186, 161, 186
165, 144, 193, 176
182, 197, 169, 161
171, 170, 190, 179
177, 173, 179, 198
193, 168, 152, 169
148, 197, 167, 198
180, 190, 187, 178
171, 154, 170, 194
166, 149, 194, 196
159, 167, 164, 164
184, 168, 192, 169
179, 172, 175, 179
196, 165, 171, 185
180, 193, 153, 178
162, 186, 190, 172
154, 187, 175, 168
172, 180, 183, 198
177, 173, 193, 170
143, 175, 188, 147
165, 171, 151, 184
170, 190, 184, 174
180, 165, 183, 173
180, 175, 185, 167
189, 194, 156, 180
175, 179, 169, 170
194, 174, 186, 170
147, 171, 182, 190
178, 177, 183, 197
158, 160, 198, 185
172, 178, 187, 184
206, 165, 189, 174
174, 173, 175, 170
173, 151, 185, 167
167, 191, 174, 195
177, 179, 166, 172
193, 186, 191, 189
157, 173, 171, 178
185, 187, 159, 173
199, 179, 159, 184
167, 176, 161, 178
159, 187, 180, 164
182, 187, 183, 162
180, 171, 184, 188
167, 145, 149, 178
192, 170, 175, 209
167, 172, 200, 157
171, 161, 194, 171
170, 184, 176, 157
171, 164, 161, 186
182, 196, 163, 161
181, 167, 158, 177
175, 160, 161, 188
179, 167, 187, 220
187, 177, 190, 221
174, 179, 185, 172
180, 173, 173, 193
188, 159, 198, 187
152, 174, 185, 181
185, 191, 174, 174
211, 176, 174, 201
197, 192, 185, 182
188, 188, 165, 173
162
*END

*EOF
